# Parte A – EMG emulado extendido | 20260422_151228
# Fs=1000 Hz | Duracion=52 s | Repeticiones=11
# Tiempo[s]	Amplitud[V]
0.000000	-0.223204
0.001000	-0.298838
0.002000	-0.323299
0.003000	-0.322333
0.004000	-0.325230
0.005000	-0.300448
0.006000	-0.298838
0.007000	-0.270516
0.008000	-0.225135
0.009000	-0.207112
0.010000	-0.188444
0.011000	-0.131155
0.012000	-0.038463
0.013000	-0.038141
0.014000	0.017217
0.015000	-0.014646
0.016000	-0.015611
0.017000	-0.045543
0.018000	-0.063889
0.019000	-0.063245
0.020000	-0.080947
0.021000	-0.060992
0.022000	-0.059061
0.023000	-0.046187
0.024000	-0.052302
0.025000	-0.027198
0.026000	0.000159
0.027000	-0.008531
0.028000	0.009171
0.029000	0.027838
0.030000	0.026229
0.031000	0.045218
0.032000	0.060989
0.033000	0.053264
0.034000	0.060667
0.035000	0.067426
0.036000	0.061310
0.037000	0.054873
0.038000	0.043609
0.039000	0.062920
0.040000	0.074184
0.041000	0.093817
0.042000	0.087058
0.043000	0.093495
0.044000	0.115059
0.045000	0.141773
0.046000	0.140485
0.047000	0.157543
0.048000	0.192303
0.049000	0.191337
0.050000	0.220947
0.051000	0.259247
0.052000	0.267616
0.053000	0.331020
0.054000	0.538612
0.055000	0.637420
0.056000	-0.130512
0.057000	-0.064854
0.058000	-0.057130
0.059000	0.060989
0.060000	0.113450
0.061000	0.122462
0.062000	0.123427
0.063000	0.129221
0.064000	0.107335
0.065000	0.107013
0.066000	0.116668
0.067000	0.143060
0.068000	0.147888
0.069000	0.163015
0.070000	0.148531
0.071000	0.169130
0.072000	0.180395
0.073000	0.192303
0.074000	0.187475
0.075000	0.199062
0.076000	0.229959
0.077000	0.228994
0.078000	0.274374
0.079000	0.303019
0.080000	0.310421
0.081000	0.313640
0.082000	0.294007
0.083000	0.283386
0.084000	0.285639
0.085000	0.255707
0.086000	0.242511
0.087000	0.250558
0.088000	0.221591
0.089000	0.205177
0.090000	0.198418
0.091000	0.169774
0.092000	0.192625
0.093000	0.192303
0.094000	0.199705
0.095000	0.209361
0.096000	0.197131
0.097000	0.207108
0.098000	0.223844
0.099000	0.222557
0.100000	0.256351
0.101000	0.279524
0.102000	0.298191
0.103000	0.325870
0.104000	0.375435
0.105000	0.366423
0.106000	0.374791
0.107000	0.405045
0.108000	0.368354
0.109000	0.361274
0.110000	0.293363
0.111000	0.206786
0.112000	0.198096
0.113000	0.144347
0.114000	-0.153685
0.115000	-0.210974
0.116000	-0.125040
0.117000	-0.031382
0.118000	-0.030095
0.119000	0.139198
0.120000	0.384447
0.121000	0.387665
0.122000	0.453644
0.123000	0.387665
0.124000	0.303019
0.125000	0.248948
0.126000	0.181360
0.127000	0.150784
0.128000	0.149497
0.129000	0.135658
0.130000	0.084805
0.131000	0.076115
0.132000	0.011424
0.133000	0.073863
0.134000	0.089955
0.135000	0.454610
0.136000	0.646432
0.137000	0.653512
0.138000	0.710802
0.139000	0.449460
0.140000	1.407604
0.141000	0.337779
0.142000	1.345166
0.143000	0.304950
0.144000	-0.683770
0.145000	-0.467809
0.146000	-0.216123
0.147000	-0.165271
0.148000	-0.028164
0.149000	0.034597
0.150000	0.033631
0.151000	0.075472
0.152000	0.109588
0.153000	0.110875
0.154000	0.099289
0.155000	0.068069
0.156000	0.061954
0.157000	0.033631
0.158000	0.060023
0.159000	0.052299
0.160000	0.070966
0.161000	0.077725
0.162000	0.077403
0.163000	0.061632
0.164000	0.016895
0.165000	-0.039428
0.166000	-0.085775
0.167000	-0.149822
0.168000	-0.172674
0.169000	-0.171064
0.170000	-0.184904
0.171000	-0.187479
0.172000	-0.185548
0.173000	-0.237044
0.174000	-0.266654
0.175000	-0.266975
0.176000	-0.292402
0.177000	-0.311391
0.178000	-0.312356
0.179000	-0.316540
0.180000	-0.333598
0.181000	-0.338426
0.182000	-0.322012
0.183000	-0.285643
0.184000	-0.275344
0.185000	-0.236722
0.186000	-0.262470
0.187000	-0.291758
0.188000	-0.300448
0.189000	-0.375117
0.190000	-0.430153
0.191000	-0.429509
0.192000	-0.455579
0.193000	-0.475212
0.194000	-0.475212
0.195000	-0.538616
0.196000	-0.657378
0.197000	-0.666068
0.198000	-0.791589
0.199000	-0.885569
0.200000	-0.893293
0.201000	-0.942858
0.202000	-0.931272
0.203000	-0.937065
0.204000	-0.929662
0.205000	-0.916145
0.206000	-0.908098
0.207000	-0.906167
0.208000	-0.916467
0.209000	-0.896512
0.210000	-0.895868
0.211000	-0.870120
0.212000	-0.841798
0.213000	-0.845982
0.214000	-0.830533
0.215000	-0.802532
0.216000	-0.803498
0.217000	-0.765841
0.218000	-0.702759
0.219000	-0.702759
0.220000	-0.645792
0.221000	-0.558892
0.222000	-0.549881
0.223000	-0.433371
0.224000	-0.286286
0.225000	-0.279849
0.226000	-0.115063
0.227000	0.031700
0.228000	0.077081
0.229000	0.104116
0.230000	0.124071
0.231000	0.155612
0.232000	0.138232
0.233000	0.155934
0.234000	0.174923
0.235000	0.174923
0.236000	0.200671
0.237000	0.228350
0.238000	0.229637
0.239000	0.254742
0.240000	0.275018
0.241000	0.274374
0.242000	0.293042
0.243000	0.331020
0.244000	0.329732
0.245000	0.348078
0.246000	0.366101
0.247000	0.378010
0.248000	0.395390
0.249000	0.413091
0.250000	0.415988
0.251000	0.413735
0.252000	0.417275
0.253000	0.434655
0.254000	0.434977
0.255000	0.465874
0.256000	0.506106
0.257000	0.499990
0.258000	0.555992
0.259000	0.607810
0.260000	0.608454
0.261000	0.645466
0.262000	0.666708
0.263000	0.666065
0.264000	0.690203
0.265000	0.668961
0.266000	0.662202
0.267000	0.687307
0.268000	0.706296
0.269000	0.716595
0.270000	0.735262
0.271000	0.765516
0.272000	0.786436
0.273000	0.781286
0.274000	0.814759
0.275000	0.882669
0.276000	0.889749
0.277000	0.965706
0.278000	1.096376
0.279000	1.097986
0.280000	1.348062
0.281000	1.515424
0.282000	1.445583
0.283000	0.356768
0.284000	0.508037
0.285000	0.408264
0.286000	0.447207
0.287000	0.730112
0.288000	1.033616
0.289000	1.078675
0.290000	1.064513
0.291000	0.913566
0.292000	0.746527
0.293000	0.746527
0.294000	0.649007
0.295000	0.611350
0.296000	0.602982
0.297000	0.583027
0.298000	0.561785
0.299000	0.558567
0.300000	0.550199
0.301000	0.531532
0.302000	0.526704
0.303000	0.525738
0.304000	0.533463
0.305000	0.528313
0.306000	0.537647
0.307000	0.520589
0.308000	0.532175
0.309000	0.524129
0.310000	0.531210
0.311000	0.520267
0.312000	0.519945
0.313000	0.499025
0.314000	0.481967
0.315000	0.480680
0.316000	0.469737
0.317000	0.457506
0.318000	0.470380
0.319000	0.499990
0.320000	0.538290
0.321000	0.556314
0.322000	0.575947
0.323000	0.580131
0.324000	0.595901
0.325000	0.589786
0.326000	0.581096
0.327000	0.578200
0.328000	0.581418
0.329000	0.543440
0.330000	0.511255
0.331000	0.509646
0.332000	0.439483
0.333000	0.402470
0.334000	0.396355
0.335000	0.366423
0.336000	0.347756
0.337000	0.352584
0.338000	0.361595
0.339000	0.383481
0.340000	0.385090
0.341000	0.395711
0.342000	0.391206
0.343000	0.380263
0.344000	0.383803
0.345000	0.364814
0.346000	0.352906
0.347000	0.350331
0.348000	0.331020
0.349000	0.339388
0.350000	0.320721
0.351000	0.313318
0.352000	0.310743
0.353000	0.310421
0.354000	0.322652
0.355000	0.307203
0.356000	0.308490
0.357000	0.282742
0.358000	0.264719
0.359000	0.264719
0.360000	0.272443
0.361000	0.261179
0.362000	0.259247
0.363000	0.261822
0.364000	0.241868
0.365000	0.228994
0.366000	0.235431
0.367000	0.219982
0.368000	0.236074
0.369000	0.228994
0.370000	0.248305
0.371000	0.279202
0.372000	0.281133
0.373000	0.375435
0.374000	0.622293
0.375000	0.629052
0.376000	-0.009496
0.377000	0.130186
0.378000	0.133726
0.379000	0.217407
0.380000	0.226097
0.381000	0.221269
0.382000	0.180395
0.383000	0.164302
0.384000	0.172670
0.385000	0.180716
0.386000	0.199705
0.387000	0.205499
0.388000	0.206142
0.389000	0.189084
0.390000	0.185544
0.391000	0.187153
0.392000	0.153037
0.393000	0.116025
0.394000	0.115381
0.395000	0.077081
0.396000	-0.074188
0.397000	-0.086096
0.398000	-0.396681
0.399000	-0.453004
0.400000	-0.426934
0.401000	-0.014002
0.402000	0.294973
0.403000	0.318790
0.404000	0.362561
0.405000	0.251201
0.406000	0.179429
0.407000	0.158509
0.408000	0.122140
0.409000	0.104116
0.410000	0.103794
0.411000	0.111197
0.412000	0.133726
0.413000	0.139198
0.414000	0.146600
0.415000	0.153359
0.416000	0.153359
0.417000	0.172026
0.418000	0.146279
0.419000	0.143704
0.420000	0.098323
0.421000	0.069678
0.422000	0.071931
0.423000	0.092530
0.424000	0.134692
0.425000	0.147566
0.426000	0.161084
0.427000	0.223200
0.428000	0.329089
0.429000	0.335848
0.430000	0.421137
0.431000	0.143382
0.432000	0.191659
0.433000	0.868186
0.434000	0.929981
0.435000	0.836001
0.436000	-0.595583
0.437000	-0.887822
0.438000	-0.752645
0.439000	-0.270838
0.440000	-0.074510
0.441000	-0.070004
0.442000	-0.112166
0.443000	-0.070648
0.444000	-0.063245
0.445000	-0.018508
0.446000	-0.047475
0.447000	-0.053268
0.448000	-0.061636
0.449000	-0.044578
0.450000	-0.015611
0.451000	-0.008209
0.452000	-0.003381
0.453000	-0.043612
0.454000	-0.043290
0.455000	-0.021083
0.456000	0.000803
0.457000	-0.007887
0.458000	0.005309
0.459000	-0.016899
0.460000	0.003056
0.461000	-0.039750
0.462000	-0.299160
0.463000	-0.367392
0.464000	-0.207112
0.465000	0.154325
0.466000	0.198418
0.467000	0.254098
0.468000	0.126646
0.469000	0.026229
0.470000	0.022045
0.471000	-0.040072
0.472000	-0.067429
0.473000	-0.066142
0.474000	-0.091246
0.475000	-0.091890
0.476000	-0.085453
0.477000	-0.054233
0.478000	-0.015290
0.479000	-0.017864
0.480000	0.025907
0.481000	0.053586
0.482000	0.050689
0.483000	0.066460
0.484000	0.085127
0.485000	0.065816
0.486000	0.033631
0.487000	0.011424
0.488000	0.001447
0.489000	-0.003059
0.490000	-0.009496
0.491000	-0.036532
0.492000	-0.035888
0.493000	-0.065176
0.494000	-0.076763
0.495000	-0.073866
0.496000	-0.056808
0.497000	-0.025589
0.498000	-0.023336
0.499000	0.009493
0.500000	0.032344
0.501000	0.039103
0.502000	0.014642
0.503000	-0.053590
0.504000	-0.059061
0.505000	-0.132121
0.506000	-0.167846
0.507000	-0.162053
0.508000	-0.133086
0.509000	-0.092533
0.510000	-0.076441
0.511000	-0.077406
0.512000	-0.073222
0.513000	-0.042325
0.514000	-0.044578
0.515000	-0.046509
0.516000	-0.045865
0.517000	-0.047475
0.518000	-0.046187
0.519000	-0.046187
0.520000	-0.045222
0.521000	-0.043934
0.522000	-0.042325
0.523000	-0.040394
0.524000	-0.040072
0.525000	-0.039428
0.526000	-0.039750
0.527000	-0.039428
0.528000	-0.040072
0.529000	-0.039750
0.530000	-0.042647
0.531000	-0.044900
0.532000	-0.046831
0.533000	-0.046831
0.534000	-0.046509
0.535000	-0.046509
0.536000	-0.046509
0.537000	-0.044900
0.538000	-0.042647
0.539000	-0.040716
0.540000	-0.040394
0.541000	-0.039750
0.542000	-0.040072
0.543000	-0.039428
0.544000	-0.040072
0.545000	-0.040394
0.546000	-0.042003
0.547000	-0.043290
0.548000	-0.046187
0.549000	-0.046831
0.550000	-0.047475
0.551000	-0.047796
0.552000	-0.046831
0.553000	-0.045543
0.554000	-0.044900
0.555000	-0.050371
0.556000	-0.049727
0.557000	-0.029129
0.558000	-0.040072
0.559000	-0.036532
0.560000	-0.040394
0.561000	-0.054233
0.562000	-0.047475
0.563000	-0.076441
0.564000	-0.063889
0.565000	-0.080303
0.566000	-0.099292
0.567000	-0.118603
0.568000	-0.121822
0.569000	-0.140167
0.570000	-0.157869
0.571000	-0.150788
0.572000	-0.154328
0.573000	-0.140489
0.574000	-0.132764
0.575000	-0.132443
0.576000	-0.130190
0.577000	-0.128902
0.578000	-0.141776
0.579000	-0.123431
0.580000	-0.106051
0.581000	-0.116672
0.582000	-0.079338
0.583000	-0.062280
0.584000	-0.061314
0.585000	-0.042647
0.586000	-0.014968
0.587000	-0.022370
0.588000	0.016252
0.589000	0.052299
0.590000	0.064851
0.591000	0.102829
0.592000	0.134048
0.593000	0.124715
0.594000	0.112806
0.595000	0.014964
0.596000	-0.086418
0.597000	-0.088027
0.598000	-0.134696
0.599000	-0.128259
0.600000	-0.136949
0.601000	-0.109591
0.602000	-0.089637
0.603000	-0.097039
0.604000	-0.098327
0.605000	-0.116028
0.606000	-0.114419
0.607000	-0.139845
0.608000	-0.206790
0.609000	-0.206146
0.610000	-0.326839
0.611000	-0.243480
0.612000	-0.070648
0.613000	0.133083
0.614000	0.219982
0.615000	0.090921
0.616000	0.097357
0.617000	0.086415
0.618000	0.061310
0.619000	0.054552
0.620000	0.073219
0.621000	0.108300
0.622000	0.110231
0.623000	0.222557
0.624000	0.349043
0.625000	0.356768
0.626000	-0.020439
0.627000	1.081571
0.628000	1.293992
0.629000	1.219001
0.630000	-0.603951
0.631000	-0.732369
0.632000	-1.351284
0.633000	-0.957663
0.634000	-0.446567
0.635000	-0.204859
0.636000	0.186510
0.637000	0.316858
0.638000	0.310100
0.639000	0.161727
0.640000	0.018505
0.641000	0.012711
0.642000	-0.031382
0.643000	0.013355
0.644000	0.020114
0.645000	0.076437
0.646000	0.113450
0.647000	0.110553
0.648000	0.132117
0.649000	0.164302
0.650000	0.163980
0.651000	0.204211
0.652000	0.275984
0.653000	0.317180
0.654000	0.401505
0.655000	0.602982
0.656000	0.801563
0.657000	0.957981
0.658000	0.575303
0.659000	-0.095752
0.660000	0.019792
0.661000	0.763907
0.662000	0.479714
0.663000	0.487117
0.664000	0.502565
0.665000	0.325227
0.666000	0.317180
0.667000	0.081265
0.668000	-0.094786
0.669000	-0.095430
0.670000	-0.215158
0.671000	-0.281459
0.672000	-0.278884
0.673000	-0.296586
0.674000	-0.302379
0.675000	-0.286608
0.676000	-0.282746
0.677000	-0.252492
0.678000	-0.216445
0.679000	-0.209686
0.680000	-0.180398
0.681000	-0.137914
0.682000	-0.131799
0.683000	-0.102833
0.684000	-0.073544
0.685000	-0.071613
0.686000	-0.056164
0.687000	-0.038141
0.688000	-0.036210
0.689000	-0.034279
0.690000	-0.021727
0.691000	-0.021405
0.692000	-0.003059
0.693000	0.026551
0.694000	0.034275
0.695000	0.059701
0.696000	0.097036
0.697000	0.097036
0.698000	0.103794
0.699000	0.091886
0.700000	0.090921
0.701000	0.083196
0.702000	0.103151
0.703000	0.110875
0.704000	0.096392
0.705000	0.111197
0.706000	0.096070
0.707000	0.101220
0.708000	0.089955
0.709000	0.078368
0.710000	0.070644
0.711000	0.063242
0.712000	0.077725
0.713000	0.076759
0.714000	0.058736
0.715000	0.053264
0.716000	0.054873
0.717000	0.051655
0.718000	0.044252
0.719000	0.063563
0.720000	0.065173
0.721000	0.092208
0.722000	0.117634
0.723000	0.117312
0.724000	0.137267
0.725000	0.163658
0.726000	0.163337
0.727000	0.174923
0.728000	0.200349
0.729000	0.191659
0.730000	0.235109
0.731000	0.270512
0.732000	0.260857
0.733000	0.294651
0.734000	0.278558
0.735000	0.284674
0.736000	0.262788
0.737000	0.220626
0.738000	0.198740
0.739000	0.189406
0.740000	0.180395
0.741000	0.199705
0.742000	0.193268
0.743000	0.144347
0.744000	0.030413
0.745000	0.030413
0.746000	-0.034601
0.747000	-0.039750
0.748000	-0.041681
0.749000	-0.041681
0.750000	-0.023658
0.751000	-0.040072
0.752000	-0.020439
0.753000	-0.000806
0.754000	-0.003703
0.755000	0.054230
0.756000	0.105404
0.757000	0.132117
0.758000	0.169130
0.759000	0.142416
0.760000	0.102507
0.761000	0.093173
0.762000	-0.167202
0.763000	0.224166
0.764000	0.224488
0.765000	-0.191341
0.766000	0.146922
0.767000	0.153359
0.768000	0.237040
0.769000	0.267616
0.770000	0.275018
0.771000	0.287892
0.772000	0.245086
0.773000	0.241868
0.774000	0.185866
0.775000	0.141129
0.776000	0.141129
0.777000	0.110875
0.778000	0.095105
0.779000	0.103473
0.780000	0.108300
0.781000	0.124715
0.782000	0.085771
0.783000	0.085127
0.784000	0.039747
0.785000	-0.034922
0.786000	-0.034279
0.787000	-0.082556
0.788000	-0.070004
0.789000	-0.067429
0.790000	-0.018508
0.791000	0.035241
0.792000	0.035241
0.793000	0.094461
0.794000	0.157865
0.795000	0.156900
0.796000	0.220304
0.797000	0.228350
0.798000	0.211292
0.799000	0.194234
0.800000	0.160118
0.801000	0.141773
0.802000	0.138554
0.803000	0.124715
0.804000	0.113772
0.805000	0.122462
0.806000	0.109910
0.807000	0.119887
0.808000	0.111519
0.809000	0.142094
0.810000	0.155612
0.811000	0.154647
0.812000	0.173314
0.813000	0.179429
0.814000	0.179751
0.815000	0.186510
0.816000	0.192625
0.817000	0.177820
0.818000	0.193912
0.819000	0.211614
0.820000	0.220947
0.821000	0.233178
0.822000	0.244121
0.823000	0.220947
0.824000	0.229316
0.825000	0.199062
0.826000	0.154003
0.827000	0.152716
0.828000	0.105404
0.829000	0.065494
0.830000	0.064529
0.831000	0.040390
0.832000	0.053264
0.833000	0.042321
0.834000	0.051977
0.835000	0.064207
0.836000	0.045862
0.837000	0.047471
0.838000	0.045218
0.839000	0.046505
0.840000	0.039425
0.841000	0.048115
0.842000	0.055839
0.843000	0.059379
0.844000	0.051655
0.845000	0.065494
0.846000	0.058736
0.847000	0.036850
0.848000	0.027194
0.849000	0.022045
0.850000	-0.041359
0.851000	-0.068073
0.852000	-0.066464
0.853000	-0.051980
0.854000	-0.039428
0.855000	-0.037175
0.856000	-0.004669
0.857000	0.014320
0.858000	0.014320
0.859000	0.034275
0.860000	0.085449
0.861000	0.092852
0.862000	0.102829
0.863000	0.069678
0.864000	-0.127615
0.865000	-0.161087
0.866000	-0.481005
0.867000	-0.370933
0.868000	-0.350978
0.869000	0.054873
0.870000	0.374469
0.871000	0.382516
0.872000	0.396355
0.873000	0.251845
0.874000	0.253454
0.875000	0.189406
0.876000	0.163980
0.877000	0.170739
0.878000	0.151428
0.879000	0.181360
0.880000	0.181038
0.881000	0.192625
0.882000	0.211292
0.883000	0.247661
0.884000	0.332951
0.885000	0.267294
0.886000	0.648041
0.887000	1.060329
0.888000	-0.020439
0.889000	-0.660275
0.890000	-0.718851
0.891000	-0.921616
0.892000	-0.356449
0.893000	-0.342610
0.894000	-0.158191
0.895000	-0.099936
0.896000	-0.101545
0.897000	-0.066142
0.898000	-0.092855
0.899000	-0.095430
0.900000	-0.094464
0.901000	-0.103154
0.902000	-0.090280
0.903000	-0.066142
0.904000	-0.029129
0.905000	-0.014324
0.906000	-0.006278
0.907000	0.005631
0.908000	0.016252
0.909000	0.013355
0.910000	-0.001450
0.911000	0.012389
0.912000	0.012389
0.913000	0.044252
0.914000	0.065173
0.915000	0.067426
0.916000	0.105082
0.917000	0.156900
0.918000	0.155290
0.919000	0.175889
0.920000	0.123749
0.921000	0.124393
0.922000	0.012068
0.923000	-0.100258
0.924000	-0.127937
0.925000	-0.169777
0.926000	-0.150788
0.927000	-0.094786
0.928000	-0.094786
0.929000	-0.067751
0.930000	-0.062601
0.931000	-0.072257
0.932000	-0.093177
0.933000	-0.101223
0.934000	-0.100901
0.935000	-0.083522
0.936000	-0.062601
0.937000	-0.061314
0.938000	-0.032991
0.939000	-0.020117
0.940000	-0.018508
0.941000	0.007884
0.942000	0.026551
0.943000	0.022045
0.944000	0.037172
0.945000	0.018826
0.946000	0.016252
0.947000	0.016573
0.948000	-0.023336
0.949000	-0.048118
0.950000	-0.047153
0.951000	-0.073866
0.952000	-0.092212
0.953000	-0.082556
0.954000	-0.097039
0.955000	-0.106051
0.956000	-0.104442
0.957000	-0.091890
0.958000	-0.058096
0.959000	-0.057452
0.960000	-0.020117
0.961000	-0.001450
0.962000	-0.001450
0.963000	-0.002416
0.964000	-0.001772
0.965000	-0.003059
0.966000	-0.003381
0.967000	0.011424
0.968000	0.015286
0.969000	0.011424
0.970000	-0.001772
0.971000	-0.022692
0.972000	-0.010140
0.973000	0.029126
0.974000	0.060023
0.975000	0.068391
0.976000	0.086736
0.977000	0.112806
0.978000	0.112484
0.979000	0.149819
0.980000	0.204533
0.981000	0.205821
0.982000	0.279524
0.983000	0.387343
0.984000	0.390884
0.985000	0.575303
0.986000	0.736549
0.987000	0.533785
0.988000	0.270190
0.989000	-0.065176
0.990000	0.400217
0.991000	0.388309
0.992000	0.549555
0.993000	0.621006
0.994000	0.593970
0.995000	0.396999
0.996000	0.104760
0.997000	0.097036
0.998000	-0.111844
0.999000	-0.217411
1.000000	-0.217411
1.001000	-0.292080
1.002000	-0.317184
1.003000	-0.315575
1.004000	-0.319437
1.005000	-0.294976
1.006000	-0.287252
1.007000	-0.265366
1.008000	-0.219342
1.009000	-0.190054
1.010000	-0.182329
1.011000	-0.126649
1.012000	-0.032669
1.013000	-0.030095
1.014000	0.023332
1.015000	-0.008853
1.016000	-0.010462
1.017000	-0.039750
1.018000	-0.059061
1.019000	-0.058739
1.020000	-0.075154
1.021000	-0.056486
1.022000	-0.054233
1.023000	-0.041681
1.024000	-0.047796
1.025000	-0.021405
1.026000	0.003699
1.027000	-0.003059
1.028000	0.015286
1.029000	0.032666
1.030000	0.031057
1.031000	0.047471
1.032000	0.064207
1.033000	0.056161
1.034000	0.062920
1.035000	0.071931
1.036000	0.065816
1.037000	0.057770
1.038000	0.048758
1.039000	0.070644
1.040000	0.077403
1.041000	0.096714
1.042000	0.089311
1.043000	0.095748
1.044000	0.117956
1.045000	0.143704
1.046000	0.143704
1.047000	0.159796
1.048000	0.195843
1.049000	0.193590
1.050000	0.223522
1.051000	0.260857
1.052000	0.269225
1.053000	0.332629
1.054000	0.541509
1.055000	0.639673
1.056000	-0.128580
1.057000	-0.062923
1.058000	-0.030738
1.059000	0.061632
1.060000	0.114415
1.061000	0.129221
1.062000	0.125037
1.063000	0.131473
1.064000	0.110553
1.065000	0.108622
1.066000	0.118600
1.067000	0.144991
1.068000	0.148853
1.069000	0.164302
1.070000	0.148853
1.071000	0.168808
1.072000	0.179429
1.073000	0.191659
1.074000	0.189084
1.075000	0.200671
1.076000	0.230281
1.077000	0.230281
1.078000	0.274696
1.079000	0.304306
1.080000	0.314927
1.081000	0.315571
1.082000	0.293363
1.083000	0.278237
1.084000	0.285639
1.085000	0.255385
1.086000	0.242511
1.087000	0.250879
1.088000	0.221591
1.089000	0.204855
1.090000	0.198740
1.091000	0.169452
1.092000	0.191337
1.093000	0.190372
1.094000	0.198096
1.095000	0.210326
1.096000	0.197774
1.097000	0.207430
1.098000	0.223200
1.099000	0.226097
1.100000	0.256673
1.101000	0.277593
1.102000	0.306559
1.103000	0.325548
1.104000	0.373182
1.105000	0.363527
1.106000	0.373504
1.107000	0.404080
1.108000	0.367067
1.109000	0.359343
1.110000	0.291754
1.111000	0.204211
1.112000	0.197453
1.113000	0.142094
1.114000	-0.155616
1.115000	-0.213549
1.116000	-0.126971
1.117000	-0.033635
1.118000	-0.032669
1.119000	0.136945
1.120000	0.381872
1.121000	0.402470
1.122000	0.451391
1.123000	0.385090
1.124000	0.264719
1.125000	0.245730
1.126000	0.177498
1.127000	0.148531
1.128000	0.149175
1.129000	0.132761
1.130000	0.082552
1.131000	0.073863
1.132000	0.002734
1.133000	0.071610
1.134000	0.086415
1.135000	0.453644
1.136000	0.642248
1.137000	0.649972
1.138000	0.706939
1.139000	0.445276
1.140000	1.404064
1.141000	0.333273
1.142000	1.340338
1.143000	-0.001772
1.144000	-0.686988
1.145000	-0.471671
1.146000	-0.176536
1.147000	-0.167846
1.148000	-0.031060
1.149000	0.030735
1.150000	0.030091
1.151000	0.070966
1.152000	0.106047
1.153000	0.106047
1.154000	0.097357
1.155000	0.062598
1.156000	0.056805
1.157000	0.028160
1.158000	0.055839
1.159000	0.047149
1.160000	0.065816
1.161000	0.072575
1.162000	0.069035
1.163000	0.055839
1.164000	0.011424
1.165000	-0.071291
1.166000	-0.091246
1.167000	-0.156903
1.168000	-0.179111
1.169000	-0.177501
1.170000	-0.191985
1.171000	-0.194559
1.172000	-0.192950
1.173000	-0.243802
1.174000	-0.273412
1.175000	-0.273734
1.176000	-0.300126
1.177000	-0.320081
1.178000	-0.320402
1.179000	-0.323299
1.180000	-0.340035
1.181000	-0.346472
1.182000	-0.329092
1.183000	-0.292080
1.184000	-0.268585
1.185000	-0.243802
1.186000	-0.268907
1.187000	-0.310425
1.188000	-0.310103
1.189000	-0.382519
1.190000	-0.438843
1.191000	-0.437877
1.192000	-0.462981
1.193000	-0.482614
1.194000	-0.482614
1.195000	-0.548915
1.196000	-0.664137
1.197000	-0.673471
1.198000	-0.798348
1.199000	-0.894259
1.200000	-0.901340
1.201000	-0.950261
1.202000	-0.939318
1.203000	-0.943824
1.204000	-0.937709
1.205000	-0.924513
1.206000	-0.913248
1.207000	-0.913570
1.208000	-0.925478
1.209000	-0.903593
1.210000	-0.903593
1.211000	-0.879132
1.212000	-0.850166
1.213000	-0.854993
1.214000	-0.837935
1.215000	-0.810256
1.216000	-0.811544
1.217000	-0.775175
1.218000	-0.711127
1.219000	-0.710483
1.220000	-0.654482
1.221000	-0.567260
1.222000	-0.558892
1.223000	-0.440774
1.224000	-0.293367
1.225000	-0.238975
1.226000	-0.123753
1.227000	0.024620
1.228000	0.091242
1.229000	0.097357
1.230000	0.116990
1.231000	0.148210
1.232000	0.131473
1.233000	0.149819
1.234000	0.167521
1.235000	0.167842
1.236000	0.191981
1.237000	0.222879
1.238000	0.223200
1.239000	0.247017
1.240000	0.267937
1.241000	0.267937
1.242000	0.287892
1.243000	0.324583
1.244000	0.323295
1.245000	0.342285
1.246000	0.360308
1.247000	0.380585
1.248000	0.390884
1.249000	0.407298
1.250000	0.411482
1.251000	0.407942
1.252000	0.411804
1.253000	0.427896
1.254000	0.429184
1.255000	0.460725
1.256000	0.498703
1.257000	0.493553
1.258000	0.549877
1.259000	0.602660
1.260000	0.602338
1.261000	0.640638
1.262000	0.661880
1.263000	0.660915
1.264000	0.685054
1.265000	0.664777
1.266000	0.661559
1.267000	0.681513
1.268000	0.701790
1.269000	0.717560
1.270000	0.730434
1.271000	0.762297
1.272000	0.781608
1.273000	0.776137
1.274000	0.811540
1.275000	0.880094
1.276000	0.886531
1.277000	0.962487
1.278000	1.093480
1.279000	1.095411
1.280000	1.345166
1.281000	1.511883
1.282000	1.443330
1.283000	0.353549
1.284000	0.505784
1.285000	0.404723
1.286000	0.443667
1.287000	0.727538
1.288000	1.031685
1.289000	1.076100
1.290000	1.062904
1.291000	0.908739
1.292000	0.744596
1.293000	0.744596
1.294000	0.647397
1.295000	0.610063
1.296000	0.601695
1.297000	0.582706
1.298000	0.561785
1.299000	0.553739
1.300000	0.548912
1.301000	0.530566
1.302000	0.523485
1.303000	0.526060
1.304000	0.533463
1.305000	0.527991
1.306000	0.537647
1.307000	0.520911
1.308000	0.531854
1.309000	0.525095
1.310000	0.532819
1.311000	0.521232
1.312000	0.520911
1.313000	0.501600
1.314000	0.484542
1.315000	0.482932
1.316000	0.471024
1.317000	0.459438
1.318000	0.477139
1.319000	0.502243
1.320000	0.540865
1.321000	0.568866
1.322000	0.577878
1.323000	0.583671
1.324000	0.598476
1.325000	0.592039
1.326000	0.584315
1.327000	0.581418
1.328000	0.584315
1.329000	0.546337
1.330000	0.515117
1.331000	0.513186
1.332000	0.443989
1.333000	0.405367
1.334000	0.398608
1.335000	0.368998
1.336000	0.350974
1.337000	0.354837
1.338000	0.364492
1.339000	0.386056
1.340000	0.391849
1.341000	0.399895
1.342000	0.395390
1.343000	0.379619
1.344000	0.387987
1.345000	0.368676
1.346000	0.357411
1.347000	0.356446
1.348000	0.334560
1.349000	0.344537
1.350000	0.325548
1.351000	0.318468
1.352000	0.315249
1.353000	0.316537
1.354000	0.327801
1.355000	0.311387
1.356000	0.313962
1.357000	0.288536
1.358000	0.269869
1.359000	0.269225
1.360000	0.277915
1.361000	0.265684
1.362000	0.261500
1.363000	0.267937
1.364000	0.248305
1.365000	0.234143
1.366000	0.241868
1.367000	0.225132
1.368000	0.240580
1.369000	0.234787
1.370000	0.255385
1.371000	0.284352
1.372000	0.286605
1.373000	0.381550
1.374000	0.627443
1.375000	0.634523
1.376000	-0.004669
1.377000	0.135658
1.378000	0.140485
1.379000	0.222557
1.380000	0.231568
1.381000	0.218051
1.382000	0.186510
1.383000	0.171061
1.384000	0.184257
1.385000	0.186188
1.386000	0.205177
1.387000	0.210970
1.388000	0.211614
1.389000	0.194556
1.390000	0.192303
1.391000	0.193268
1.392000	0.160440
1.393000	0.121818
1.394000	0.121174
1.395000	0.083518
1.396000	-0.067107
1.397000	-0.080625
1.398000	-0.389600
1.399000	-0.446567
1.400000	-0.420497
1.401000	-0.007887
1.402000	0.300122
1.403000	0.345181
1.404000	0.367389
1.405000	0.256029
1.406000	0.171705
1.407000	0.165589
1.408000	0.128255
1.409000	0.109910
1.410000	0.109910
1.411000	0.118278
1.412000	0.139198
1.413000	0.145635
1.414000	0.152394
1.415000	0.160440
1.416000	0.160118
1.417000	0.177176
1.418000	0.151750
1.419000	0.149175
1.420000	0.105082
1.421000	0.076437
1.422000	0.082874
1.423000	0.098967
1.424000	0.140485
1.425000	0.160762
1.426000	0.165911
1.427000	0.229959
1.428000	0.334882
1.429000	0.340997
1.430000	0.426287
1.431000	0.149497
1.432000	0.197131
1.433000	0.655765
1.434000	0.935774
1.435000	0.840185
1.436000	-0.598480
1.437000	-0.883638
1.438000	-0.749105
1.439000	-0.266010
1.440000	-0.068717
1.441000	-0.065820
1.442000	-0.107017
1.443000	-0.066142
1.444000	-0.043290
1.445000	-0.014646
1.446000	-0.042003
1.447000	-0.054555
1.448000	-0.056486
1.449000	-0.039750
1.450000	-0.009818
1.451000	-0.003059
1.452000	0.002412
1.453000	-0.039428
1.454000	-0.039106
1.455000	-0.016577
1.456000	0.006274
1.457000	-0.004025
1.458000	0.007562
1.459000	-0.011106
1.460000	0.006918
1.461000	-0.033957
1.462000	-0.294333
1.463000	-0.350334
1.464000	-0.202284
1.465000	0.160118
1.466000	0.231568
1.467000	0.257960
1.468000	0.130830
1.469000	0.025585
1.470000	0.027838
1.471000	-0.035888
1.472000	-0.063889
1.473000	-0.061958
1.474000	-0.085453
1.475000	-0.086740
1.476000	-0.079981
1.477000	-0.050049
1.478000	-0.012393
1.479000	-0.012715
1.480000	0.031378
1.481000	0.058414
1.482000	0.057126
1.483000	0.070644
1.484000	0.088989
1.485000	0.062920
1.486000	0.037815
1.487000	0.014964
1.488000	0.000481
1.489000	0.000481
1.490000	-0.006600
1.491000	-0.031060
1.492000	-0.030738
1.493000	-0.061314
1.494000	-0.073222
1.495000	-0.068395
1.496000	-0.053268
1.497000	-0.019474
1.498000	-0.017543
1.499000	0.014320
1.500000	0.036528
1.501000	0.043609
1.502000	0.016895
1.503000	-0.049084
1.504000	-0.054877
1.505000	-0.129868
1.506000	-0.163984
1.507000	-0.151110
1.508000	-0.129224
1.509000	-0.088349
1.510000	-0.069038
1.511000	-0.072257
1.512000	-0.070004
1.513000	-0.037497
1.514000	-0.039750
1.515000	-0.041359
1.516000	-0.042969
1.517000	-0.043934
1.518000	-0.042969
1.519000	-0.042325
1.520000	-0.041681
1.521000	-0.040716
1.522000	-0.039428
1.523000	-0.037819
1.524000	-0.036210
1.525000	-0.037497
1.526000	-0.037175
1.527000	-0.036210
1.528000	-0.037175
1.529000	-0.037819
1.530000	-0.039106
1.531000	-0.041038
1.532000	-0.042969
1.533000	-0.043290
1.534000	-0.042969
1.535000	-0.043290
1.536000	-0.042325
1.537000	-0.042003
1.538000	-0.040394
1.539000	-0.038785
1.540000	-0.037175
1.541000	-0.037175
1.542000	-0.037175
1.543000	-0.036532
1.544000	-0.037175
1.545000	-0.037175
1.546000	-0.038463
1.547000	-0.040716
1.548000	-0.041681
1.549000	-0.042647
1.550000	-0.044256
1.551000	-0.043934
1.552000	-0.042647
1.553000	-0.042969
1.554000	-0.042003
1.555000	-0.047475
1.556000	-0.046509
1.557000	-0.026554
1.558000	-0.037497
1.559000	-0.033313
1.560000	-0.036532
1.561000	-0.052624
1.562000	-0.044578
1.563000	-0.072901
1.564000	-0.060027
1.565000	-0.076441
1.566000	-0.096074
1.567000	-0.114741
1.568000	-0.124075
1.569000	-0.137592
1.570000	-0.154972
1.571000	-0.144995
1.572000	-0.153041
1.573000	-0.140167
1.574000	-0.130833
1.575000	-0.131155
1.576000	-0.127615
1.577000	-0.127615
1.578000	-0.138880
1.579000	-0.120856
1.580000	-0.103476
1.581000	-0.113132
1.582000	-0.077728
1.583000	-0.060348
1.584000	-0.060670
1.585000	-0.041681
1.586000	-0.014324
1.587000	-0.022048
1.588000	0.017539
1.589000	0.053908
1.590000	0.079978
1.591000	0.104760
1.592000	0.133726
1.593000	0.122140
1.594000	0.114094
1.595000	0.016573
1.596000	-0.086418
1.597000	-0.086418
1.598000	-0.134052
1.599000	-0.127615
1.600000	-0.135339
1.601000	-0.109591
1.602000	-0.089959
1.603000	-0.096396
1.604000	-0.099936
1.605000	-0.117959
1.606000	-0.115385
1.607000	-0.139845
1.608000	-0.207112
1.609000	-0.225779
1.610000	-0.327805
1.611000	-0.244768
1.612000	0.030735
1.613000	0.132117
1.614000	0.219660
1.615000	0.088989
1.616000	0.096392
1.617000	0.083196
1.618000	0.056805
1.619000	0.050689
1.620000	0.071288
1.621000	0.103794
1.622000	0.107013
1.623000	0.220304
1.624000	0.345503
1.625000	0.353549
1.626000	-0.023014
1.627000	1.078353
1.628000	1.291095
1.629000	1.215461
1.630000	-0.606848
1.631000	-0.928697
1.632000	-1.356112
1.633000	-0.961525
1.634000	-0.252814
1.635000	-0.208721
1.636000	0.181038
1.637000	0.312031
1.638000	0.303984
1.639000	0.155290
1.640000	0.014642
1.641000	0.007240
1.642000	-0.033957
1.643000	0.007240
1.644000	0.014642
1.645000	0.071288
1.646000	0.106369
1.647000	0.105404
1.648000	0.126646
1.649000	0.157543
1.650000	0.159152
1.651000	0.198096
1.652000	0.270834
1.653000	0.343894
1.654000	0.395390
1.655000	0.595901
1.656000	0.811218
1.657000	0.950257
1.658000	0.567579
1.659000	-0.102833
1.660000	0.013033
1.661000	0.735906
1.662000	0.473921
1.663000	0.480680
1.664000	0.489369
1.665000	0.317502
1.666000	0.310100
1.667000	0.073863
1.668000	-0.101545
1.669000	-0.103476
1.670000	-0.223204
1.671000	-0.289505
1.672000	-0.295620
1.673000	-0.304310
1.674000	-0.310747
1.675000	-0.287252
1.676000	-0.292080
1.677000	-0.263113
1.678000	-0.224813
1.679000	-0.218376
1.680000	-0.189410
1.681000	-0.146926
1.682000	-0.139845
1.683000	-0.112488
1.684000	-0.081590
1.685000	-0.081912
1.686000	-0.066142
1.687000	-0.047153
1.688000	-0.046509
1.689000	-0.043934
1.690000	-0.030738
1.691000	-0.030738
1.692000	-0.012071
1.693000	0.018183
1.694000	0.034597
1.695000	0.050368
1.696000	0.087380
1.697000	0.090277
1.698000	0.094783
1.699000	0.081265
1.700000	0.080943
1.701000	0.073863
1.702000	0.092208
1.703000	0.100898
1.704000	0.086415
1.705000	0.098967
1.706000	0.086093
1.707000	0.091564
1.708000	0.080300
1.709000	0.069035
1.710000	0.060345
1.711000	0.054230
1.712000	0.068069
1.713000	0.065816
1.714000	0.050046
1.715000	0.045218
1.716000	0.043609
1.717000	0.043287
1.718000	0.035241
1.719000	0.055839
1.720000	0.055839
1.721000	0.082874
1.722000	0.107657
1.723000	0.109266
1.724000	0.129221
1.725000	0.155612
1.726000	0.154968
1.727000	0.165589
1.728000	0.191981
1.729000	0.183613
1.730000	0.226741
1.731000	0.262144
1.732000	0.253132
1.733000	0.286283
1.734000	0.270512
1.735000	0.267937
1.736000	0.252811
1.737000	0.212901
1.738000	0.181360
1.739000	0.182004
1.740000	0.172992
1.741000	0.191981
1.742000	0.186188
1.743000	0.136301
1.744000	0.023010
1.745000	0.023010
1.746000	-0.042969
1.747000	-0.047796
1.748000	-0.048762
1.749000	-0.049727
1.750000	-0.032026
1.751000	-0.047475
1.752000	-0.028164
1.753000	-0.008209
1.754000	-0.007565
1.755000	0.046505
1.756000	0.097679
1.757000	0.140485
1.758000	0.162049
1.759000	0.135658
1.760000	0.089955
1.761000	0.086736
1.762000	-0.173961
1.763000	0.218051
1.764000	0.219016
1.765000	-0.181685
1.766000	0.141451
1.767000	0.147566
1.768000	0.230281
1.769000	0.260857
1.770000	0.268581
1.771000	0.280490
1.772000	0.237684
1.773000	0.236074
1.774000	0.180716
1.775000	0.135658
1.776000	0.124393
1.777000	0.104760
1.778000	0.090277
1.779000	0.103473
1.780000	0.103473
1.781000	0.120852
1.782000	0.080943
1.783000	0.080300
1.784000	0.034597
1.785000	-0.039428
1.786000	-0.038141
1.787000	-0.086740
1.788000	-0.072901
1.789000	-0.071613
1.790000	-0.021727
1.791000	0.031700
1.792000	0.032022
1.793000	0.091564
1.794000	0.154968
1.795000	0.154325
1.796000	0.217729
1.797000	0.227063
1.798000	0.203568
1.799000	0.192947
1.800000	0.159474
1.801000	0.135658
1.802000	0.136945
1.803000	0.122784
1.804000	0.112484
1.805000	0.120852
1.806000	0.107979
1.807000	0.116990
1.808000	0.110553
1.809000	0.138554
1.810000	0.155290
1.811000	0.155612
1.812000	0.173636
1.813000	0.180395
1.814000	0.181682
1.815000	0.186510
1.816000	0.194556
1.817000	0.180716
1.818000	0.192625
1.819000	0.212579
1.820000	0.227063
1.821000	0.233178
1.822000	0.246695
1.823000	0.221913
1.824000	0.230603
1.825000	0.200993
1.826000	0.155612
1.827000	0.155290
1.828000	0.106691
1.829000	0.069357
1.830000	0.068069
1.831000	0.046505
1.832000	0.056805
1.833000	0.044896
1.834000	0.055517
1.835000	0.066782
1.836000	0.048436
1.837000	0.050368
1.838000	0.047471
1.839000	0.047149
1.840000	0.043287
1.841000	0.051977
1.842000	0.062920
1.843000	0.063242
1.844000	0.055195
1.845000	0.069678
1.846000	0.061310
1.847000	0.041678
1.848000	0.032022
1.849000	0.026229
1.850000	-0.038141
1.851000	-0.064532
1.852000	-0.064211
1.853000	-0.046831
1.854000	-0.034922
1.855000	-0.032991
1.856000	-0.002416
1.857000	0.017861
1.858000	0.019148
1.859000	0.037172
1.860000	0.090599
1.861000	0.103151
1.862000	0.107979
1.863000	0.072897
1.864000	-0.140167
1.865000	-0.156903
1.866000	-0.476821
1.867000	-0.366427
1.868000	-0.348081
1.869000	0.061954
1.870000	0.379297
1.871000	0.385412
1.872000	0.388631
1.873000	0.257316
1.874000	0.257638
1.875000	0.193912
1.876000	0.168164
1.877000	0.176532
1.878000	0.157543
1.879000	0.186510
1.880000	0.190694
1.881000	0.197453
1.882000	0.215798
1.883000	0.271800
1.884000	0.337779
1.885000	0.270190
1.886000	0.652547
1.887000	1.063870
1.888000	-0.017543
1.889000	-0.656734
1.890000	-0.715311
1.891000	-0.915501
1.892000	-0.352909
1.893000	-0.339391
1.894000	-0.151432
1.895000	-0.096396
1.896000	-0.096717
1.897000	-0.060992
1.898000	-0.088349
1.899000	-0.090280
1.900000	-0.091568
1.901000	-0.099292
1.902000	-0.078694
1.903000	-0.063567
1.904000	-0.025911
1.905000	-0.006600
1.906000	-0.004025
1.907000	0.007562
1.908000	0.020114
1.909000	0.016573
1.910000	0.001768
1.911000	0.015930
1.912000	0.015930
1.913000	0.049402
1.914000	0.068713
1.915000	0.069357
1.916000	0.107335
1.917000	0.158831
1.918000	0.159152
1.919000	0.178463
1.920000	0.126968
1.921000	0.110231
1.922000	0.012389
1.923000	-0.098327
1.924000	-0.143385
1.925000	-0.166559
1.926000	-0.148535
1.927000	-0.091890
1.928000	-0.092212
1.929000	-0.066785
1.930000	-0.061958
1.931000	-0.070326
1.932000	-0.088993
1.933000	-0.099614
1.934000	-0.099936
1.935000	-0.081269
1.936000	-0.060348
1.937000	-0.060027
1.938000	-0.033313
1.939000	-0.019474
1.940000	-0.019474
1.941000	0.008205
1.942000	0.026873
1.943000	0.026551
1.944000	0.038459
1.945000	0.018183
1.946000	0.014642
1.947000	0.017539
1.948000	-0.022048
1.949000	-0.047153
1.950000	-0.047796
1.951000	-0.073544
1.952000	-0.092212
1.953000	-0.083843
1.954000	-0.097361
1.955000	-0.107338
1.956000	-0.105085
1.957000	-0.093499
1.958000	-0.060348
1.959000	-0.059383
1.960000	-0.022370
1.961000	-0.004025
1.962000	-0.005312
1.963000	-0.004669
1.964000	-0.004025
1.965000	-0.002094
1.966000	-0.006278
1.967000	0.007240
1.968000	0.012068
1.969000	0.008527
1.970000	-0.004990
1.971000	-0.027198
1.972000	-0.014646
1.973000	0.026229
1.974000	0.055195
1.975000	0.064207
1.976000	0.081909
1.977000	0.107657
1.978000	0.107335
1.979000	0.145635
1.980000	0.200671
1.981000	0.201315
1.982000	0.275018
1.983000	0.382516
1.984000	0.430149
1.985000	0.570154
1.986000	0.731400
1.987000	0.387665
1.988000	0.263110
1.989000	-0.072579
1.990000	0.392493
1.991000	0.381228
1.992000	0.542475
1.993000	0.614569
1.994000	0.587855
1.995000	0.387665
1.996000	0.098645
1.997000	0.089633
1.998000	-0.120212
1.999000	-0.225135
2.000000	-0.224813
2.001000	-0.299482
2.002000	-0.324908
2.003000	-0.322977
2.004000	-0.326196
2.005000	-0.302379
2.006000	-0.287896
2.007000	-0.272769
2.008000	-0.227388
2.009000	-0.188766
2.010000	-0.189410
2.011000	-0.134374
2.012000	-0.041038
2.013000	-0.037819
2.014000	0.016252
2.015000	-0.016255
2.016000	-0.018186
2.017000	-0.047796
2.018000	-0.067429
2.019000	-0.066142
2.020000	-0.084165
2.021000	-0.064211
2.022000	-0.063567
2.023000	-0.050049
2.024000	-0.055843
2.025000	-0.030095
2.026000	-0.003703
2.027000	-0.011106
2.028000	0.006596
2.029000	0.025585
2.030000	0.023976
2.031000	0.040390
2.032000	0.056483
2.033000	0.048115
2.034000	0.055195
2.035000	0.062920
2.036000	0.051011
2.037000	0.049724
2.038000	0.039103
2.039000	0.068391
2.040000	0.069035
2.041000	0.088989
2.042000	0.081909
2.043000	0.089955
2.044000	0.111519
2.045000	0.136945
2.046000	0.136623
2.047000	0.152716
2.048000	0.188441
2.049000	0.185866
2.050000	0.216120
2.051000	0.253776
2.052000	0.260535
2.053000	0.325227
2.054000	0.533785
2.055000	0.630339
2.056000	-0.136949
2.057000	-0.069682
2.058000	-0.005312
2.059000	0.055517
2.060000	0.107657
2.061000	0.125358
2.062000	0.118278
2.063000	0.125358
2.064000	0.103473
2.065000	0.102185
2.066000	0.112163
2.067000	0.137910
2.068000	0.141451
2.069000	0.157865
2.070000	0.142738
2.071000	0.161727
2.072000	0.171705
2.073000	0.184579
2.074000	0.183291
2.075000	0.194556
2.076000	0.223844
2.077000	0.230925
2.078000	0.268259
2.079000	0.297548
2.080000	0.312353
2.081000	0.309134
2.082000	0.288536
2.083000	0.271800
2.084000	0.280168
2.085000	0.249914
2.086000	0.235109
2.087000	0.244121
2.088000	0.214832
2.089000	0.198096
2.090000	0.191981
2.091000	0.163337
2.092000	0.185544
2.093000	0.186188
2.094000	0.194556
2.095000	0.204533
2.096000	0.193590
2.097000	0.202924
2.098000	0.219016
2.099000	0.229637
2.100000	0.250558
2.101000	0.272443
2.102000	0.309778
2.103000	0.319111
2.104000	0.368354
2.105000	0.357733
2.106000	0.367711
2.107000	0.400217
2.108000	0.361595
2.109000	0.355158
2.110000	0.287570
2.111000	0.200349
2.112000	0.192947
2.113000	0.137589
2.114000	-0.159156
2.115000	-0.216123
2.116000	-0.131155
2.117000	-0.037497
2.118000	-0.032669
2.119000	0.132761
2.120000	0.378010
2.121000	0.416953
2.122000	0.447207
2.123000	0.380585
2.124000	0.250236
2.125000	0.243477
2.126000	0.176532
2.127000	0.145957
2.128000	0.144347
2.129000	0.131152
2.130000	0.079978
2.131000	0.070966
2.132000	-0.003703
2.133000	0.069357
2.134000	0.083840
2.135000	0.451713
2.136000	0.639995
2.137000	0.647719
2.138000	0.702755
2.139000	0.443023
2.140000	1.127274
2.141000	0.332629
2.142000	1.339694
2.143000	-0.304632
2.144000	-0.687632
2.145000	-0.471993
2.146000	-0.177823
2.147000	-0.168168
2.148000	-0.031704
2.149000	0.030413
2.150000	0.029447
2.151000	0.070966
2.152000	0.103473
2.153000	0.104116
2.154000	0.097679
2.155000	0.061310
2.156000	0.056161
2.157000	0.028160
2.158000	0.054230
2.159000	0.047471
2.160000	0.064851
2.161000	0.072253
2.162000	0.065173
2.163000	0.056483
2.164000	0.013677
2.165000	-0.089959
2.166000	-0.091568
2.167000	-0.155294
2.168000	-0.177823
2.169000	-0.177501
2.170000	-0.191019
2.171000	-0.193594
2.172000	-0.192628
2.173000	-0.242515
2.174000	-0.272125
2.175000	-0.270194
2.176000	-0.297229
2.177000	-0.317506
2.178000	-0.316862
2.179000	-0.320724
2.180000	-0.337460
2.181000	-0.341323
2.182000	-0.326518
2.183000	-0.290470
2.184000	-0.254423
2.185000	-0.241228
2.186000	-0.266975
2.187000	-0.308172
2.188000	-0.308172
2.189000	-0.379944
2.190000	-0.435302
2.191000	-0.434659
2.192000	-0.458476
2.193000	-0.479074
2.194000	-0.479074
2.195000	-0.546662
2.196000	-0.661240
2.197000	-0.669930
2.198000	-0.794164
2.199000	-0.891040
2.200000	-0.898443
2.201000	-0.947042
2.202000	-0.935777
2.203000	-0.936099
2.204000	-0.934812
2.205000	-0.922582
2.206000	-0.905524
2.207000	-0.911639
2.208000	-0.922904
2.209000	-0.901018
2.210000	-0.900696
2.211000	-0.875270
2.212000	-0.845660
2.213000	-0.850809
2.214000	-0.833751
2.215000	-0.806072
2.216000	-0.808325
2.217000	-0.771313
2.218000	-0.707908
2.219000	-0.707587
2.220000	-0.650297
2.221000	-0.564686
2.222000	-0.552134
2.223000	-0.439486
2.224000	-0.290149
2.225000	-0.189088
2.226000	-0.120212
2.227000	0.027516
2.228000	0.100898
2.229000	0.100254
2.230000	0.121496
2.231000	0.152716
2.232000	0.134048
2.233000	0.153037
2.234000	0.170739
2.235000	0.170417
2.236000	0.193268
2.237000	0.225775
2.238000	0.224810
2.239000	0.248948
2.240000	0.268581
2.241000	0.271156
2.242000	0.290145
2.243000	0.326836
2.244000	0.331985
2.245000	0.345503
2.246000	0.364814
2.247000	0.392815
2.248000	0.394746
2.249000	0.409873
2.250000	0.413735
2.251000	0.409873
2.252000	0.413735
2.253000	0.431115
2.254000	0.431115
2.255000	0.463300
2.256000	0.502887
2.257000	0.496128
2.258000	0.552130
2.259000	0.605235
2.260000	0.605235
2.261000	0.642891
2.262000	0.664133
2.263000	0.663168
2.264000	0.688272
2.265000	0.667352
2.266000	0.670892
2.267000	0.684410
2.268000	0.703399
2.269000	0.723032
2.270000	0.731078
2.271000	0.762619
2.272000	0.781930
2.273000	0.776781
2.274000	0.813471
2.275000	0.880738
2.276000	0.888140
2.277000	0.965384
2.278000	1.094445
2.279000	1.097664
2.280000	1.347419
2.281000	1.514136
2.282000	1.445261
2.283000	0.354837
2.284000	0.506427
2.285000	0.449138
2.286000	0.444954
2.287000	0.728181
2.288000	1.033294
2.289000	1.075456
2.290000	1.061617
2.291000	0.909060
2.292000	0.744917
2.293000	0.745561
2.294000	0.648363
2.295000	0.611350
2.296000	0.596545
2.297000	0.583349
2.298000	0.562751
2.299000	0.551486
2.300000	0.548912
2.301000	0.530244
2.302000	0.524451
2.303000	0.525417
2.304000	0.533463
2.305000	0.526382
2.306000	0.536038
2.307000	0.519623
2.308000	0.530888
2.309000	0.524129
2.310000	0.531210
2.311000	0.520267
2.312000	0.520589
2.313000	0.501922
2.314000	0.484542
2.315000	0.481967
2.316000	0.470380
2.317000	0.459116
2.318000	0.485185
2.319000	0.500956
2.320000	0.538290
2.321000	0.573050
2.322000	0.575303
2.323000	0.581418
2.324000	0.597511
2.325000	0.589786
2.326000	0.583027
2.327000	0.579487
2.328000	0.581418
2.329000	0.544084
2.330000	0.513186
2.331000	0.510933
2.332000	0.442701
2.333000	0.404080
2.334000	0.396033
2.335000	0.366101
2.336000	0.348400
2.337000	0.355158
2.338000	0.361595
2.339000	0.384125
2.340000	0.393458
2.341000	0.396999
2.342000	0.393780
2.343000	0.378975
2.344000	0.385090
2.345000	0.366423
2.346000	0.354515
2.347000	0.354193
2.348000	0.333273
2.349000	0.342606
2.350000	0.323617
2.351000	0.314606
2.352000	0.313318
2.353000	0.312996
2.354000	0.324583
2.355000	0.306881
2.356000	0.308812
2.357000	0.284352
2.358000	0.266972
2.359000	0.265363
2.360000	0.274696
2.361000	0.263753
2.362000	0.256029
2.363000	0.265684
2.364000	0.245086
2.365000	0.230925
2.366000	0.237040
2.367000	0.221913
2.368000	0.238005
2.369000	0.231247
2.370000	0.253776
2.371000	0.281133
2.372000	0.283064
2.373000	0.378010
2.374000	0.624224
2.375000	0.630339
2.376000	-0.006278
2.377000	0.132439
2.378000	0.137910
2.379000	0.218373
2.380000	0.229316
2.381000	0.204211
2.382000	0.182969
2.383000	0.166877
2.384000	0.181682
2.385000	0.182326
2.386000	0.202280
2.387000	0.206142
2.388000	0.206142
2.389000	0.190372
2.390000	0.186510
2.391000	0.188119
2.392000	0.155934
2.393000	0.117312
2.394000	0.117312
2.395000	0.079334
2.396000	-0.071291
2.397000	-0.083843
2.398000	-0.392818
2.399000	-0.450429
2.400000	-0.322333
2.401000	-0.012393
2.402000	0.296904
2.403000	0.363527
2.404000	0.363848
2.405000	0.251523
2.406000	0.167842
2.407000	0.161084
2.408000	0.125037
2.409000	0.106047
2.410000	0.106691
2.411000	0.115059
2.412000	0.135336
2.413000	0.142094
2.414000	0.148531
2.415000	0.157221
2.416000	0.155290
2.417000	0.173958
2.418000	0.147888
2.419000	0.144669
2.420000	0.100898
2.421000	0.070644
2.422000	0.080943
2.423000	0.092852
2.424000	0.136945
2.425000	0.162049
2.426000	0.162371
2.427000	0.226741
2.428000	0.330376
2.429000	0.337457
2.430000	0.422425
2.431000	0.145313
2.432000	0.192625
2.433000	0.434655
2.434000	0.931268
2.435000	0.837932
2.436000	-0.603951
2.437000	-0.885891
2.438000	-0.752324
2.439000	-0.269872
2.440000	-0.072257
2.441000	-0.071935
2.442000	-0.110557
2.443000	-0.069038
2.444000	-0.031704
2.445000	-0.016577
2.446000	-0.044900
2.447000	-0.056808
2.448000	-0.060027
2.449000	-0.043934
2.450000	-0.013037
2.451000	-0.005956
2.452000	-0.002738
2.453000	-0.043612
2.454000	-0.041359
2.455000	-0.019474
2.456000	0.002734
2.457000	-0.008209
2.458000	0.004343
2.459000	-0.014646
2.460000	0.003699
2.461000	-0.037497
2.462000	-0.296907
2.463000	-0.309138
2.464000	-0.205502
2.465000	0.157221
2.466000	0.256673
2.467000	0.255385
2.468000	0.127289
2.469000	0.023332
2.470000	0.023976
2.471000	-0.039750
2.472000	-0.068395
2.473000	-0.066142
2.474000	-0.087706
2.475000	-0.090602
2.476000	-0.082556
2.477000	-0.052624
2.478000	-0.014968
2.479000	-0.015611
2.480000	0.028160
2.481000	0.055195
2.482000	0.053586
2.483000	0.066460
2.484000	0.085771
2.485000	0.050689
2.486000	0.033953
2.487000	0.012389
2.488000	-0.005956
2.489000	-0.004347
2.490000	-0.010140
2.491000	-0.035244
2.492000	-0.035244
2.493000	-0.064532
2.494000	-0.075797
2.495000	-0.073222
2.496000	-0.058417
2.497000	-0.022048
2.498000	-0.020761
2.499000	0.011102
2.500000	0.032344
2.501000	0.040712
2.502000	0.013033
2.503000	-0.052946
2.504000	-0.077728
2.505000	-0.134374
2.506000	-0.169133
2.507000	-0.147570
2.508000	-0.132443
2.509000	-0.091568
2.510000	-0.073222
2.511000	-0.076763
2.512000	-0.072901
2.513000	-0.040394
2.514000	-0.042969
2.515000	-0.044256
2.516000	-0.045865
2.517000	-0.046509
2.518000	-0.047475
2.519000	-0.046831
2.520000	-0.045222
2.521000	-0.044578
2.522000	-0.044256
2.523000	-0.041359
2.524000	-0.040394
2.525000	-0.039750
2.526000	-0.040394
2.527000	-0.041038
2.528000	-0.040394
2.529000	-0.041038
2.530000	-0.041359
2.531000	-0.044256
2.532000	-0.045543
2.533000	-0.046831
2.534000	-0.047475
2.535000	-0.046831
2.536000	-0.047475
2.537000	-0.045865
2.538000	-0.045222
2.539000	-0.043612
2.540000	-0.041359
2.541000	-0.040716
2.542000	-0.041681
2.543000	-0.040394
2.544000	-0.041359
2.545000	-0.040716
2.546000	-0.042325
2.547000	-0.043290
2.548000	-0.045543
2.549000	-0.046831
2.550000	-0.047475
2.551000	-0.048440
2.552000	-0.047796
2.553000	-0.046187
2.554000	-0.046509
2.555000	-0.052946
2.556000	-0.051015
2.557000	-0.031060
2.558000	-0.042003
2.559000	-0.037175
2.560000	-0.041359
2.561000	-0.055843
2.562000	-0.048762
2.563000	-0.075475
2.564000	-0.062923
2.565000	-0.079981
2.566000	-0.099614
2.567000	-0.118925
2.568000	-0.135017
2.569000	-0.141133
2.570000	-0.159800
2.571000	-0.147891
2.572000	-0.156259
2.573000	-0.144995
2.574000	-0.135661
2.575000	-0.134696
2.576000	-0.131155
2.577000	-0.131155
2.578000	-0.142742
2.579000	-0.123753
2.580000	-0.105729
2.581000	-0.116028
2.582000	-0.079338
2.583000	-0.061958
2.584000	-0.063245
2.585000	-0.043934
2.586000	-0.017864
2.587000	-0.017221
2.588000	0.013999
2.589000	0.049080
2.590000	0.089633
2.591000	0.101220
2.592000	0.130508
2.593000	0.119243
2.594000	0.111519
2.595000	0.013999
2.596000	-0.087706
2.597000	-0.089315
2.598000	-0.135017
2.599000	-0.129546
2.600000	-0.138880
2.601000	-0.112166
2.602000	-0.093499
2.603000	-0.099614
2.604000	-0.102833
2.605000	-0.120212
2.606000	-0.119569
2.607000	-0.143707
2.608000	-0.210330
2.609000	-0.260538
2.610000	-0.329092
2.611000	-0.247343
2.612000	0.123427
2.613000	0.131152
2.614000	0.219338
2.615000	0.088668
2.616000	0.095426
2.617000	0.083518
2.618000	0.056805
2.619000	0.049080
2.620000	0.069357
2.621000	0.102829
2.622000	0.105726
2.623000	0.219660
2.624000	0.343894
2.625000	0.352584
2.626000	-0.024623
2.627000	1.078031
2.628000	1.187138
2.629000	1.216104
2.630000	-0.606848
2.631000	-1.119875
2.632000	-1.355147
2.633000	-0.960882
2.634000	-0.230285
2.635000	-0.210330
2.636000	0.181038
2.637000	0.311065
2.638000	0.303341
2.639000	0.153359
2.640000	0.012711
2.641000	0.007562
2.642000	-0.031382
2.643000	0.006596
2.644000	0.014964
2.645000	0.071288
2.646000	0.108300
2.647000	0.105726
2.648000	0.127611
2.649000	0.159474
2.650000	0.172026
2.651000	0.198418
2.652000	0.270834
2.653000	0.376722
2.654000	0.396033
2.655000	0.594292
2.656000	0.810575
2.657000	0.949935
2.658000	0.567579
2.659000	-0.101545
2.660000	0.013033
2.661000	0.698249
2.662000	0.474886
2.663000	0.481323
2.664000	0.483576
2.665000	0.319111
2.666000	0.310743
2.667000	0.074184
2.668000	-0.101223
2.669000	-0.103798
2.670000	-0.221917
2.671000	-0.289183
2.672000	-0.302379
2.673000	-0.304632
2.674000	-0.310747
2.675000	-0.283068
2.676000	-0.291114
2.677000	-0.260538
2.678000	-0.223204
2.679000	-0.216123
2.680000	-0.188122
2.681000	-0.145317
2.682000	-0.139845
2.683000	-0.111201
2.684000	-0.080947
2.685000	-0.080947
2.686000	-0.066785
2.687000	-0.046187
2.688000	-0.045543
2.689000	-0.044900
2.690000	-0.031060
2.691000	-0.026232
2.692000	-0.011749
2.693000	0.019148
2.694000	0.045218
2.695000	0.051333
2.696000	0.088024
2.697000	0.091242
2.698000	0.096070
2.699000	0.082874
2.700000	0.081265
2.701000	0.074184
2.702000	0.090921
2.703000	0.100898
2.704000	0.086415
2.705000	0.096392
2.706000	0.085127
2.707000	0.091886
2.708000	0.080943
2.709000	0.070000
2.710000	0.062598
2.711000	0.055195
2.712000	0.070000
2.713000	0.062276
2.714000	0.052299
2.715000	0.045862
2.716000	0.044896
2.717000	0.043609
2.718000	0.034597
2.719000	0.055839
2.720000	0.056483
2.721000	0.082874
2.722000	0.107335
2.723000	0.109266
2.724000	0.128899
2.725000	0.156256
2.726000	0.155290
2.727000	0.167199
2.728000	0.192947
2.729000	0.184900
2.730000	0.228994
2.731000	0.264397
2.732000	0.257316
2.733000	0.285961
2.734000	0.270512
2.735000	0.260857
2.736000	0.253132
2.737000	0.213223
2.738000	0.179429
2.739000	0.181038
2.740000	0.172992
2.741000	0.192303
2.742000	0.186831
2.743000	0.135014
2.744000	0.022689
2.745000	0.023654
2.746000	-0.041359
2.747000	-0.046187
2.748000	-0.048118
2.749000	-0.048762
2.750000	-0.030417
2.751000	-0.046831
2.752000	-0.026232
2.753000	-0.007243
2.754000	0.008527
2.755000	0.047149
2.756000	0.097679
2.757000	0.156900
2.758000	0.163015
2.759000	0.136623
2.760000	0.092208
2.761000	0.088989
2.762000	-0.171708
2.763000	0.219660
2.764000	0.221591
2.765000	-0.155938
2.766000	0.142094
2.767000	0.148853
2.768000	0.230925
2.769000	0.261500
2.770000	0.268903
2.771000	0.280811
2.772000	0.236718
2.773000	0.233500
2.774000	0.179751
2.775000	0.135014
2.776000	0.115059
2.777000	0.105404
2.778000	0.090277
2.779000	0.104438
2.780000	0.103794
2.781000	0.120531
2.782000	0.080943
2.783000	0.079334
2.784000	0.034597
2.785000	-0.040394
2.786000	-0.038463
2.787000	-0.088671
2.788000	-0.075797
2.789000	-0.072901
2.790000	-0.023336
2.791000	0.031700
2.792000	0.031378
2.793000	0.091886
2.794000	0.155290
2.795000	0.166555
2.796000	0.217729
2.797000	0.226419
2.798000	0.199062
2.799000	0.193268
2.800000	0.158831
2.801000	0.134370
2.802000	0.135336
2.803000	0.121496
2.804000	0.111197
2.805000	0.119887
2.806000	0.107979
2.807000	0.115059
2.808000	0.108622
2.809000	0.136301
2.810000	0.154003
2.811000	0.154968
2.812000	0.172348
2.813000	0.180073
2.814000	0.181360
2.815000	0.186831
2.816000	0.192625
2.817000	0.185222
2.818000	0.192303
2.819000	0.211292
2.820000	0.230925
2.821000	0.230925
2.822000	0.242833
2.823000	0.219016
2.824000	0.228672
2.825000	0.198096
2.826000	0.154647
2.827000	0.154003
2.828000	0.105082
2.829000	0.067747
2.830000	0.068069
2.831000	0.045540
2.832000	0.056483
2.833000	0.044252
2.834000	0.054552
2.835000	0.065494
2.836000	0.048436
2.837000	0.049080
2.838000	0.045862
2.839000	0.041356
2.840000	0.041999
2.841000	0.050046
2.842000	0.062276
2.843000	0.061954
2.844000	0.054873
2.845000	0.069357
2.846000	0.062276
2.847000	0.042965
2.848000	0.032022
2.849000	0.026873
2.850000	-0.040072
2.851000	-0.064532
2.852000	-0.064211
2.853000	-0.048762
2.854000	-0.036210
2.855000	-0.036210
2.856000	-0.003059
2.857000	0.017217
2.858000	0.022045
2.859000	0.036850
2.860000	0.089633
2.861000	0.109910
2.862000	0.107335
2.863000	0.072253
2.864000	-0.140167
2.865000	-0.156581
2.866000	-0.477786
2.867000	-0.367714
2.868000	-0.349047
2.869000	0.064851
2.870000	0.376400
2.871000	0.384125
2.872000	0.376079
2.873000	0.254098
2.874000	0.256351
2.875000	0.191981
2.876000	0.166877
2.877000	0.174601
2.878000	0.155612
2.879000	0.185222
2.880000	0.194556
2.881000	0.197774
2.882000	0.213867
2.883000	0.280811
2.884000	0.336169
2.885000	0.267294
2.886000	0.649007
2.887000	1.061939
2.888000	0.059701
2.889000	-0.659631
2.890000	-0.717242
2.891000	-0.915179
2.892000	-0.355484
2.893000	-0.339713
2.894000	-0.153041
2.895000	-0.097683
2.896000	-0.098005
2.897000	-0.060670
2.898000	-0.090602
2.899000	-0.089315
2.900000	-0.094143
2.901000	-0.101867
2.902000	-0.072901
2.903000	-0.067429
2.904000	-0.028807
2.905000	-0.008531
2.906000	-0.006922
2.907000	0.005309
2.908000	0.018505
2.909000	0.014320
2.910000	0.000159
2.911000	0.013355
2.912000	0.014320
2.913000	0.049724
2.914000	0.068069
2.915000	0.069035
2.916000	0.104760
2.917000	0.156578
2.918000	0.155934
2.919000	0.175245
2.920000	0.123427
2.921000	0.075472
2.922000	0.008205
2.923000	-0.101867
2.924000	-0.163662
2.925000	-0.170099
2.926000	-0.151432
2.927000	-0.095108
2.928000	-0.094464
2.929000	-0.068395
2.930000	-0.062280
2.931000	-0.070648
2.932000	-0.088993
2.933000	-0.101545
2.934000	-0.102511
2.935000	-0.084165
2.936000	-0.063245
2.937000	-0.063245
2.938000	-0.036210
2.939000	-0.022370
2.940000	-0.020117
2.941000	0.005952
2.942000	0.024620
2.943000	0.029447
2.944000	0.035884
2.945000	0.018183
2.946000	0.010780
2.947000	0.015608
2.948000	-0.025267
2.949000	-0.049727
2.950000	-0.050693
2.951000	-0.077406
2.952000	-0.096396
2.953000	-0.086740
2.954000	-0.102189
2.955000	-0.112166
2.956000	-0.110557
2.957000	-0.096717
2.958000	-0.061636
2.959000	-0.061314
2.960000	-0.023336
2.961000	-0.005956
2.962000	-0.010784
2.963000	-0.006600
2.964000	-0.004025
2.965000	-0.000163
2.966000	-0.008531
2.967000	0.005631
2.968000	0.008849
2.969000	0.005631
2.970000	-0.008853
2.971000	-0.030417
2.972000	-0.017221
2.973000	0.024941
2.974000	0.053586
2.975000	0.060345
2.976000	0.079334
2.977000	0.106369
2.978000	0.106369
2.979000	0.142738
2.980000	0.198740
2.981000	0.200349
2.982000	0.272765
2.983000	0.380585
2.984000	0.475208
2.985000	0.565969
2.986000	0.728181
2.987000	0.305916
2.988000	0.259891
2.989000	-0.076119
2.990000	0.389274
2.991000	0.378332
2.992000	0.539900
2.993000	0.611028
2.994000	0.584959
2.995000	0.380906
2.996000	0.095426
2.997000	0.088024
2.998000	-0.120534
2.999000	-0.226744
3.000000	-0.227388
3.001000	-0.302379
3.002000	-0.327483
3.003000	-0.328770
3.004000	-0.329092
3.005000	-0.305597
3.006000	-0.283068
3.007000	-0.275665
3.008000	-0.229963
3.009000	-0.191019
3.010000	-0.192307
3.011000	-0.135661
3.012000	-0.042647
3.013000	-0.038785
3.014000	0.015930
3.015000	-0.016255
3.016000	-0.018186
3.017000	-0.051015
3.018000	-0.070004
3.019000	-0.068073
3.020000	-0.085775
3.021000	-0.067751
3.022000	-0.066464
3.023000	-0.052946
3.024000	-0.058417
3.025000	-0.031704
3.026000	-0.004990
3.027000	-0.013359
3.028000	0.004665
3.029000	0.024941
3.030000	0.022689
3.031000	0.040390
3.032000	0.056483
3.033000	0.047471
3.034000	0.053586
3.035000	0.062276
3.036000	0.045218
3.037000	0.048436
3.038000	0.037494
3.039000	0.069035
3.040000	0.066138
3.041000	0.087380
3.042000	0.079978
3.043000	0.087702
3.044000	0.110231
3.045000	0.135979
3.046000	0.135658
3.047000	0.153681
3.048000	0.188763
3.049000	0.186510
3.050000	0.215154
3.051000	0.252167
3.052000	0.259247
3.053000	0.324583
3.054000	0.531854
3.055000	0.493553
3.056000	-0.139201
3.057000	-0.071613
3.058000	0.024941
3.059000	0.054873
3.060000	0.106369
3.061000	0.126324
3.062000	0.118278
3.063000	0.124393
3.064000	0.104438
3.065000	0.101863
3.066000	0.112484
3.067000	0.137910
3.068000	0.141451
3.069000	0.156578
3.070000	0.141451
3.071000	0.161727
3.072000	0.170095
3.073000	0.183291
3.074000	0.180716
3.075000	0.193912
3.076000	0.223522
3.077000	0.242511
3.078000	0.267937
3.079000	0.297869
3.080000	0.315249
3.081000	0.308812
3.082000	0.287892
3.083000	0.271800
3.084000	0.278558
3.085000	0.248626
3.086000	0.234143
3.087000	0.242190
3.088000	0.213223
3.089000	0.196487
3.090000	0.190694
3.091000	0.162371
3.092000	0.185544
3.093000	0.186831
3.094000	0.193590
3.095000	0.204211
3.096000	0.193590
3.097000	0.202924
3.098000	0.219660
3.099000	0.239937
3.100000	0.250558
3.101000	0.272443
3.102000	0.310743
3.103000	0.318790
3.104000	0.368032
3.105000	0.356768
3.106000	0.367067
3.107000	0.398286
3.108000	0.361917
3.109000	0.353871
3.110000	0.287570
3.111000	0.200027
3.112000	0.194556
3.113000	0.137910
3.114000	-0.157547
3.115000	-0.214192
3.116000	-0.129224
3.117000	-0.035244
3.118000	0.014964
3.119000	0.134370
3.120000	0.377366
3.121000	0.434655
3.122000	0.445920
3.123000	0.380263
3.124000	0.249914
3.125000	0.243477
3.126000	0.176210
3.127000	0.145957
3.128000	0.146279
3.129000	0.133726
3.130000	0.081909
3.131000	0.072575
3.132000	-0.008853
3.133000	0.069035
3.134000	0.084162
3.135000	0.450426
3.136000	0.640638
3.137000	0.646754
3.138000	0.702755
3.139000	0.441414
3.140000	0.827311
3.141000	0.330054
3.142000	1.338407
3.143000	-0.480683
3.144000	-0.689563
3.145000	-0.472315
3.146000	-0.179111
3.147000	-0.168168
3.148000	-0.030738
3.149000	0.030413
3.150000	0.029126
3.151000	0.070322
3.152000	0.103151
3.153000	0.104438
3.154000	0.098001
3.155000	0.060345
3.156000	0.055195
3.157000	0.026873
3.158000	0.053586
3.159000	0.050689
3.160000	0.065494
3.161000	0.072897
3.162000	0.060989
3.163000	0.056483
3.164000	0.014964
3.165000	-0.089637
3.166000	-0.090602
3.167000	-0.154006
3.168000	-0.178145
3.169000	-0.177823
3.170000	-0.189410
3.171000	-0.194238
3.172000	-0.192628
3.173000	-0.243802
3.174000	-0.272769
3.175000	-0.271481
3.176000	-0.297873
3.177000	-0.316218
3.178000	-0.316218
3.179000	-0.321368
3.180000	-0.336173
3.181000	-0.336173
3.182000	-0.325552
3.183000	-0.289505
3.184000	-0.240262
3.185000	-0.241228
3.186000	-0.266975
3.187000	-0.308494
3.188000	-0.308494
3.189000	-0.381876
3.190000	-0.436268
3.191000	-0.433693
3.192000	-0.455901
3.193000	-0.477786
3.194000	-0.478108
3.195000	-0.545053
3.196000	-0.658987
3.197000	-0.667677
3.198000	-0.791911
3.199000	-0.888466
3.200000	-0.900374
3.201000	-0.945755
3.202000	-0.934168
3.203000	-0.927088
3.204000	-0.932237
3.205000	-0.920651
3.206000	-0.903914
3.207000	-0.909386
3.208000	-0.920651
3.209000	-0.897799
3.210000	-0.897156
3.211000	-0.873661
3.212000	-0.842441
3.213000	-0.847591
3.214000	-0.830211
3.215000	-0.803176
3.216000	-0.805429
3.217000	-0.768738
3.218000	-0.705656
3.219000	-0.705334
3.220000	-0.649654
3.221000	-0.562111
3.222000	-0.517374
3.223000	-0.436268
3.224000	-0.289827
3.225000	-0.138880
3.226000	-0.117316
3.227000	0.029447
3.228000	0.103151
3.229000	0.102185
3.230000	0.123105
3.231000	0.154647
3.232000	0.137910
3.233000	0.154647
3.234000	0.172348
3.235000	0.172026
3.236000	0.191337
3.237000	0.226097
3.238000	0.226741
3.239000	0.250236
3.240000	0.271478
3.241000	0.271800
3.242000	0.291111
3.243000	0.328767
3.244000	0.338100
3.245000	0.346147
3.246000	0.365136
3.247000	0.397321
3.248000	0.395390
3.249000	0.412126
3.250000	0.413735
3.251000	0.410838
3.252000	0.413735
3.253000	0.429506
3.254000	0.430793
3.255000	0.461690
3.256000	0.500956
3.257000	0.496450
3.258000	0.552774
3.259000	0.606522
3.260000	0.606201
3.261000	0.642891
3.262000	0.666065
3.263000	0.667996
3.264000	0.690525
3.265000	0.669283
3.266000	0.679582
3.267000	0.684732
3.268000	0.703721
3.269000	0.722710
3.270000	0.731400
3.271000	0.762941
3.272000	0.782252
3.273000	0.777102
3.274000	0.812184
3.275000	0.881381
3.276000	0.887497
3.277000	0.966993
3.278000	1.093802
3.279000	1.097986
3.280000	1.348062
3.281000	1.515424
3.282000	1.444939
3.283000	0.355158
3.284000	0.508037
3.285000	0.534750
3.286000	0.444632
3.287000	0.728503
3.288000	1.036834
3.289000	1.075456
3.290000	1.061617
3.291000	0.910026
3.292000	0.745561
3.293000	0.745561
3.294000	0.649007
3.295000	0.611994
3.296000	0.589786
3.297000	0.585280
3.298000	0.565648
3.299000	0.551808
3.300000	0.550521
3.301000	0.532175
3.302000	0.525417
3.303000	0.525417
3.304000	0.534428
3.305000	0.527991
3.306000	0.537969
3.307000	0.521876
3.308000	0.532819
3.309000	0.526060
3.310000	0.533463
3.311000	0.522842
3.312000	0.522842
3.313000	0.503209
3.314000	0.486795
3.315000	0.481645
3.316000	0.471668
3.317000	0.460725
3.318000	0.494519
3.319000	0.501278
3.320000	0.540543
3.321000	0.575947
3.322000	0.575625
3.323000	0.580775
3.324000	0.597189
3.325000	0.591396
3.326000	0.586568
3.327000	0.581096
3.328000	0.583671
3.329000	0.547946
3.330000	0.515439
3.331000	0.513508
3.332000	0.444954
3.333000	0.405689
3.334000	0.398930
3.335000	0.367389
3.336000	0.350331
3.337000	0.358055
3.338000	0.363205
3.339000	0.383159
3.340000	0.397321
3.341000	0.398930
3.342000	0.395390
3.343000	0.380263
3.344000	0.387987
3.345000	0.368676
3.346000	0.356446
3.347000	0.356124
3.348000	0.335526
3.349000	0.344859
3.350000	0.325548
3.351000	0.316215
3.352000	0.313640
3.353000	0.315249
3.354000	0.325548
3.355000	0.308169
3.356000	0.308490
3.357000	0.285961
3.358000	0.268581
3.359000	0.266328
3.360000	0.276627
3.361000	0.265363
3.362000	0.257638
3.363000	0.268581
3.364000	0.247983
3.365000	0.235109
3.366000	0.240580
3.367000	0.224810
3.368000	0.239293
3.369000	0.231890
3.370000	0.257960
3.371000	0.282421
3.372000	0.283386
3.373000	0.378332
3.374000	0.625190
3.375000	0.631627
3.376000	-0.005956
3.377000	0.133726
3.378000	0.160762
3.379000	0.219982
3.380000	0.229959
3.381000	0.196165
3.382000	0.184900
3.383000	0.168808
3.384000	0.182969
3.385000	0.182969
3.386000	0.202602
3.387000	0.206786
3.388000	0.207752
3.389000	0.193590
3.390000	0.189406
3.391000	0.190050
3.392000	0.157865
3.393000	0.119243
3.394000	0.120209
3.395000	0.081265
3.396000	-0.069038
3.397000	-0.080947
3.398000	-0.390565
3.399000	-0.447855
3.400000	-0.206146
3.401000	-0.009174
3.402000	0.297548
3.403000	0.376079
3.404000	0.363848
3.405000	0.253776
3.406000	0.167521
3.407000	0.162693
3.408000	0.126324
3.409000	0.107657
3.410000	0.107335
3.411000	0.117956
3.412000	0.137589
3.413000	0.144026
3.414000	0.150141
3.415000	0.159152
3.416000	0.158509
3.417000	0.174601
3.418000	0.148853
3.419000	0.138232
3.420000	0.100576
3.421000	0.071931
3.422000	0.087702
3.423000	0.093495
3.424000	0.136301
3.425000	0.163337
3.426000	0.163658
3.427000	0.227706
3.428000	0.331663
3.429000	0.338744
3.430000	0.413091
3.431000	0.147888
3.432000	0.193268
3.433000	0.219016
3.434000	0.932877
3.435000	0.837610
3.436000	-0.604917
3.437000	-0.887500
3.438000	-0.752967
3.439000	-0.270838
3.440000	-0.073222
3.441000	-0.081269
3.442000	-0.109591
3.443000	-0.067429
3.444000	-0.015933
3.445000	-0.015290
3.446000	-0.043290
3.447000	-0.055521
3.448000	-0.057774
3.449000	-0.040716
3.450000	-0.012715
3.451000	-0.005312
3.452000	-0.001772
3.453000	-0.041681
3.454000	-0.042003
3.455000	-0.018830
3.456000	0.001125
3.457000	-0.007565
3.458000	0.004987
3.459000	-0.014968
3.460000	0.001125
3.461000	-0.037175
3.462000	-0.297229
3.463000	-0.266010
3.464000	-0.203571
3.465000	0.159152
3.466000	0.262144
3.467000	0.255707
3.468000	0.126968
3.469000	0.022367
3.470000	0.023654
3.471000	-0.039106
3.472000	-0.068395
3.473000	-0.067107
3.474000	-0.085131
3.475000	-0.089959
3.476000	-0.082556
3.477000	-0.053268
3.478000	-0.015611
3.479000	-0.015611
3.480000	0.028804
3.481000	0.056805
3.482000	0.060345
3.483000	0.068069
3.484000	0.086736
3.485000	0.044252
3.486000	0.033953
3.487000	0.011746
3.488000	-0.006600
3.489000	-0.004347
3.490000	-0.011106
3.491000	-0.034922
3.492000	-0.034279
3.493000	-0.064211
3.494000	-0.075797
3.495000	-0.071613
3.496000	-0.058739
3.497000	-0.020439
3.498000	-0.018830
3.499000	0.012068
3.500000	0.034275
3.501000	0.041356
3.502000	0.013999
3.503000	-0.052946
3.504000	-0.098970
3.505000	-0.134052
3.506000	-0.170099
3.507000	-0.142098
3.508000	-0.132443
3.509000	-0.091890
3.510000	-0.071935
3.511000	-0.076119
3.512000	-0.072579
3.513000	-0.040072
3.514000	-0.040394
3.515000	-0.042969
3.516000	-0.045543
3.517000	-0.045865
3.518000	-0.047475
3.519000	-0.045865
3.520000	-0.045222
3.521000	-0.044256
3.522000	-0.044256
3.523000	-0.042647
3.524000	-0.040072
3.525000	-0.040072
3.526000	-0.039106
3.527000	-0.040072
3.528000	-0.040394
3.529000	-0.040072
3.530000	-0.041038
3.531000	-0.041681
3.532000	-0.044900
3.533000	-0.047796
3.534000	-0.047475
3.535000	-0.047796
3.536000	-0.046831
3.537000	-0.046187
3.538000	-0.045222
3.539000	-0.043290
3.540000	-0.041681
3.541000	-0.040072
3.542000	-0.039750
3.543000	-0.040394
3.544000	-0.040394
3.545000	-0.040716
3.546000	-0.041681
3.547000	-0.042647
3.548000	-0.044900
3.549000	-0.047153
3.550000	-0.047475
3.551000	-0.047475
3.552000	-0.048440
3.553000	-0.047796
3.554000	-0.045865
3.555000	-0.053911
3.556000	-0.051659
3.557000	-0.030417
3.558000	-0.041038
3.559000	-0.037175
3.560000	-0.040716
3.561000	-0.055521
3.562000	-0.049406
3.563000	-0.075797
3.564000	-0.061958
3.565000	-0.083522
3.566000	-0.099292
3.567000	-0.120212
3.568000	-0.139523
3.569000	-0.142098
3.570000	-0.160122
3.571000	-0.146926
3.572000	-0.158512
3.573000	-0.145317
3.574000	-0.136627
3.575000	-0.135661
3.576000	-0.133086
3.577000	-0.132443
3.578000	-0.142420
3.579000	-0.124396
3.580000	-0.106051
3.581000	-0.116028
3.582000	-0.079981
3.583000	-0.062601
3.584000	-0.064532
3.585000	-0.045543
3.586000	-0.018508
3.587000	-0.008853
3.588000	0.013677
3.589000	0.047793
3.590000	0.098967
3.591000	0.098645
3.592000	0.130186
3.593000	0.119565
3.594000	0.111197
3.595000	0.012711
3.596000	-0.088671
3.597000	-0.088993
3.598000	-0.136627
3.599000	-0.131477
3.600000	-0.140167
3.601000	-0.112810
3.602000	-0.095108
3.603000	-0.101867
3.604000	-0.104120
3.605000	-0.122465
3.606000	-0.123431
3.607000	-0.144995
3.608000	-0.212583
3.609000	-0.294011
3.610000	-0.332633
3.611000	-0.249596
3.612000	0.120209
3.613000	0.129542
3.614000	0.217729
3.615000	0.086415
3.616000	0.092208
3.617000	0.080943
3.618000	0.054552
3.619000	0.046827
3.620000	0.067426
3.621000	0.100898
3.622000	0.102185
3.623000	0.216442
3.624000	0.341319
3.625000	0.349687
3.626000	-0.025267
3.627000	1.075134
3.628000	0.878485
3.629000	1.212886
3.630000	-0.608457
3.631000	-1.311375
3.632000	-1.356112
3.633000	-0.962813
3.634000	-0.232538
3.635000	-0.212905
3.636000	0.177176
3.637000	0.309456
3.638000	0.301088
3.639000	0.148210
3.640000	0.009815
3.641000	0.003378
3.642000	-0.032026
3.643000	0.004665
3.644000	0.011424
3.645000	0.068391
3.646000	0.106047
3.647000	0.106369
3.648000	0.125680
3.649000	0.157221
3.650000	0.181038
3.651000	0.196809
3.652000	0.267294
3.653000	0.385412
3.654000	0.393458
3.655000	0.592039
3.656000	0.808644
3.657000	0.948326
3.658000	0.556958
3.659000	-0.103154
3.660000	0.011424
3.661000	0.661559
3.662000	0.472633
3.663000	0.480036
3.664000	0.483254
3.665000	0.319111
3.666000	0.310421
3.667000	0.074184
3.668000	-0.102833
3.669000	-0.135661
3.670000	-0.225779
3.671000	-0.292080
3.672000	-0.313322
3.673000	-0.307528
3.674000	-0.313644
3.675000	-0.286286
3.676000	-0.293689
3.677000	-0.263113
3.678000	-0.225457
3.679000	-0.218698
3.680000	-0.188444
3.681000	-0.145960
3.682000	-0.139201
3.683000	-0.112488
3.684000	-0.082234
3.685000	-0.082556
3.686000	-0.067107
3.687000	-0.048118
3.688000	-0.047796
3.689000	-0.045865
3.690000	-0.032991
3.691000	-0.022370
3.692000	-0.012393
3.693000	0.017861
3.694000	0.051655
3.695000	0.051011
3.696000	0.088346
3.697000	0.091564
3.698000	0.096714
3.699000	0.083840
3.700000	0.081909
3.701000	0.073541
3.702000	0.087058
3.703000	0.099610
3.704000	0.086093
3.705000	0.095426
3.706000	0.084805
3.707000	0.090277
3.708000	0.080621
3.709000	0.069678
3.710000	0.062920
3.711000	0.054873
3.712000	0.069035
3.713000	0.057126
3.714000	0.052942
3.715000	0.047149
3.716000	0.044896
3.717000	0.044896
3.718000	0.035884
3.719000	0.055195
3.720000	0.056483
3.721000	0.083196
3.722000	0.106047
3.723000	0.108300
3.724000	0.128255
3.725000	0.156256
3.726000	0.156578
3.727000	0.166877
3.728000	0.194234
3.729000	0.186188
3.730000	0.229959
3.731000	0.266328
3.732000	0.268903
3.733000	0.288536
3.734000	0.271478
3.735000	0.254742
3.736000	0.255063
3.737000	0.213867
3.738000	0.181038
3.739000	0.182326
3.740000	0.173636
3.741000	0.193268
3.742000	0.186188
3.743000	0.134048
3.744000	0.025907
3.745000	0.025585
3.746000	-0.037819
3.747000	-0.043290
3.748000	-0.044900
3.749000	-0.047475
3.750000	-0.030417
3.751000	-0.044256
3.752000	-0.027198
3.753000	-0.006922
3.754000	0.024620
3.755000	0.047793
3.756000	0.098323
3.757000	0.163337
3.758000	0.164302
3.759000	0.137910
3.760000	0.092208
3.761000	0.088989
3.762000	-0.170099
3.763000	0.221913
3.764000	0.223522
3.765000	-0.127615
3.766000	0.144669
3.767000	0.150463
3.768000	0.231247
3.769000	0.263110
3.770000	0.270512
3.771000	0.282742
3.772000	0.238005
3.773000	0.222879
3.774000	0.180716
3.775000	0.136945
3.776000	0.106047
3.777000	0.107657
3.778000	0.092208
3.779000	0.107657
3.780000	0.107657
3.781000	0.125358
3.782000	0.084805
3.783000	0.082552
3.784000	0.038137
3.785000	-0.036853
3.786000	-0.036853
3.787000	-0.085131
3.788000	-0.072579
3.789000	-0.072901
3.790000	-0.020761
3.791000	0.032988
3.792000	0.033631
3.793000	0.093173
3.794000	0.158509
3.795000	0.188441
3.796000	0.220626
3.797000	0.230281
3.798000	0.198740
3.799000	0.196487
3.800000	0.161727
3.801000	0.138554
3.802000	0.138554
3.803000	0.123749
3.804000	0.114737
3.805000	0.121818
3.806000	0.109588
3.807000	0.118278
3.808000	0.111197
3.809000	0.138554
3.810000	0.156256
3.811000	0.157865
3.812000	0.174923
3.813000	0.182647
3.814000	0.187153
3.815000	0.190694
3.816000	0.197453
3.817000	0.192947
3.818000	0.193912
3.819000	0.212901
3.820000	0.233821
3.821000	0.233500
3.822000	0.246052
3.823000	0.221269
3.824000	0.229637
3.825000	0.202280
3.826000	0.156900
3.827000	0.158831
3.828000	0.108300
3.829000	0.069678
3.830000	0.070322
3.831000	0.050689
3.832000	0.058414
3.833000	0.045862
3.834000	0.056805
3.835000	0.067426
3.836000	0.051655
3.837000	0.050368
3.838000	0.048115
3.839000	0.041034
3.840000	0.042321
3.841000	0.051655
3.842000	0.063563
3.843000	0.064529
3.844000	0.055839
3.845000	0.070644
3.846000	0.063885
3.847000	0.046827
3.848000	0.034597
3.849000	0.029447
3.850000	-0.037175
3.851000	-0.064854
3.852000	-0.063567
3.853000	-0.048118
3.854000	-0.036853
3.855000	-0.035244
3.856000	-0.003703
3.857000	0.016573
3.858000	0.026873
3.859000	0.036850
3.860000	0.090921
3.861000	0.111519
3.862000	0.107979
3.863000	0.073863
3.864000	-0.137914
3.865000	-0.154328
3.866000	-0.476499
3.867000	-0.366749
3.868000	-0.347438
3.869000	0.071288
3.870000	0.378332
3.871000	0.385090
3.872000	0.377688
3.873000	0.254742
3.874000	0.256351
3.875000	0.193590
3.876000	0.168164
3.877000	0.172026
3.878000	0.156578
3.879000	0.186831
3.880000	0.201637
3.881000	0.200027
3.882000	0.216442
3.883000	0.282421
3.884000	0.338100
3.885000	0.269547
3.886000	0.650938
3.887000	1.063548
3.888000	0.320399
3.889000	-0.658022
3.890000	-0.716598
3.891000	-0.912283
3.892000	-0.353231
3.893000	-0.339070
3.894000	-0.151110
3.895000	-0.096396
3.896000	-0.097039
3.897000	-0.060992
3.898000	-0.088993
3.899000	-0.081912
3.900000	-0.091568
3.901000	-0.100258
3.902000	-0.066464
3.903000	-0.065176
3.904000	-0.027198
3.905000	-0.008531
3.906000	-0.006600
3.907000	0.005631
3.908000	0.018505
3.909000	0.015286
3.910000	-0.000163
3.911000	0.014320
3.912000	0.013677
3.913000	0.052299
3.914000	0.069035
3.915000	0.070966
3.916000	0.106369
3.917000	0.157865
3.918000	0.159474
3.919000	0.176210
3.920000	0.123427
3.921000	0.043931
3.922000	0.010458
3.923000	-0.101545
3.924000	-0.162696
3.925000	-0.169133
3.926000	-0.150144
3.927000	-0.094143
3.928000	-0.094786
3.929000	-0.067751
3.930000	-0.061958
3.931000	-0.070648
3.932000	-0.086096
3.933000	-0.100901
3.934000	-0.101545
3.935000	-0.083200
3.936000	-0.064532
3.937000	-0.063889
3.938000	-0.035566
3.939000	-0.023336
3.940000	-0.012393
3.941000	0.005309
3.942000	0.024298
3.943000	0.034919
3.944000	0.036528
3.945000	0.017217
3.946000	0.013999
3.947000	0.017217
3.948000	-0.023336
3.949000	-0.047475
3.950000	-0.048762
3.951000	-0.075154
3.952000	-0.095752
3.953000	-0.088027
3.954000	-0.101223
3.955000	-0.113454
3.956000	-0.110235
3.957000	-0.097039
3.958000	-0.062923
3.959000	-0.060992
3.960000	-0.023014
3.961000	-0.005634
3.962000	-0.014968
3.963000	-0.005956
3.964000	-0.003703
3.965000	0.002090
3.966000	-0.007243
3.967000	0.007240
3.968000	0.009815
3.969000	0.006596
3.970000	-0.008209
3.971000	-0.029451
3.972000	-0.017221
3.973000	0.027516
3.974000	0.052942
3.975000	0.061310
3.976000	0.080621
3.977000	0.106369
3.978000	0.106691
3.979000	0.143382
3.980000	0.199705
3.981000	0.220626
3.982000	0.273731
3.983000	0.382516
3.984000	0.524451
3.985000	0.567579
3.986000	0.729469
3.987000	0.307203
3.988000	0.260213
3.989000	-0.075154
3.990000	0.389596
3.991000	0.379619
3.992000	0.544084
3.993000	0.612316
3.994000	0.586246
3.995000	0.379297
3.996000	0.097679
3.997000	0.089955
3.998000	-0.117638
3.999000	-0.224170
4.000000	-0.225457
4.001000	-0.302057
4.002000	-0.327483
4.003000	-0.331345
4.004000	-0.329092
4.005000	-0.305597
4.006000	-0.277918
4.007000	-0.276309
4.008000	-0.230607
4.009000	-0.191019
4.010000	-0.191341
4.011000	-0.136627
4.012000	-0.042325
4.013000	-0.040394
4.014000	0.015286
4.015000	-0.017221
4.016000	-0.018186
4.017000	-0.049084
4.018000	-0.069360
4.019000	-0.069682
4.020000	-0.087706
4.021000	-0.066142
4.022000	-0.066142
4.023000	-0.053268
4.024000	-0.059061
4.025000	-0.032348
4.026000	-0.005634
4.027000	-0.012715
4.028000	0.004987
4.029000	0.023332
4.030000	0.023010
4.031000	0.041034
4.032000	0.057770
4.033000	0.051977
4.034000	0.054230
4.035000	0.061310
4.036000	0.039425
4.037000	0.048436
4.038000	0.037494
4.039000	0.069357
4.040000	0.068069
4.041000	0.087380
4.042000	0.080621
4.043000	0.088346
4.044000	0.110875
4.045000	0.135658
4.046000	0.135658
4.047000	0.153681
4.048000	0.190050
4.049000	0.187475
4.050000	0.215154
4.051000	0.251845
4.052000	0.259247
4.053000	0.324261
4.054000	0.531532
4.055000	0.299157
4.056000	-0.139201
4.057000	-0.072579
4.058000	0.050689
4.059000	0.054552
4.060000	0.106691
4.061000	0.125680
4.062000	0.118278
4.063000	0.125037
4.064000	0.104116
4.065000	0.103151
4.066000	0.112163
4.067000	0.137910
4.068000	0.140485
4.069000	0.157543
4.070000	0.142416
4.071000	0.161405
4.072000	0.170095
4.073000	0.182326
4.074000	0.182004
4.075000	0.192303
4.076000	0.224488
4.077000	0.255385
4.078000	0.268259
4.079000	0.297548
4.080000	0.315571
4.081000	0.310421
4.082000	0.289179
4.083000	0.273409
4.084000	0.280168
4.085000	0.249270
4.086000	0.233821
4.087000	0.243155
4.088000	0.213867
4.089000	0.196809
4.090000	0.190372
4.091000	0.162049
4.092000	0.185544
4.093000	0.186510
4.094000	0.193268
4.095000	0.203246
4.096000	0.196165
4.097000	0.204533
4.098000	0.222235
4.099000	0.251523
4.100000	0.251201
4.101000	0.272765
4.102000	0.310743
4.103000	0.318146
4.104000	0.368998
4.105000	0.357090
4.106000	0.366423
4.107000	0.397964
4.108000	0.362239
4.109000	0.355802
4.110000	0.287248
4.111000	0.201637
4.112000	0.193590
4.113000	0.136945
4.114000	-0.156581
4.115000	-0.212261
4.116000	-0.128902
4.117000	-0.035888
4.118000	0.060023
4.119000	0.132117
4.120000	0.377044
4.121000	0.441092
4.122000	0.444311
4.123000	0.378975
4.124000	0.247983
4.125000	0.243155
4.126000	0.175245
4.127000	0.147244
4.128000	0.145635
4.129000	0.136301
4.130000	0.081909
4.131000	0.073219
4.132000	-0.008853
4.133000	0.069357
4.134000	0.084805
4.135000	0.450748
4.136000	0.639351
4.137000	0.661237
4.138000	0.702755
4.139000	0.440770
4.140000	0.530888
4.141000	0.331663
4.142000	1.339051
4.143000	-0.478108
4.144000	-0.687632
4.145000	-0.472637
4.146000	-0.178467
4.147000	-0.168168
4.148000	-0.027198
4.149000	0.031057
4.150000	0.028804
4.151000	0.069678
4.152000	0.103473
4.153000	0.102507
4.154000	0.097357
4.155000	0.059701
4.156000	0.053908
4.157000	0.025585
4.158000	0.052621
4.159000	0.054552
4.160000	0.064529
4.161000	0.072253
4.162000	0.057448
4.163000	0.056805
4.164000	0.013355
4.165000	-0.088671
4.166000	-0.091246
4.167000	-0.156581
4.168000	-0.179111
4.169000	-0.178145
4.170000	-0.189088
4.171000	-0.194881
4.172000	-0.194559
4.173000	-0.246055
4.174000	-0.274700
4.175000	-0.273091
4.176000	-0.297873
4.177000	-0.317506
4.178000	-0.319437
4.179000	-0.322012
4.180000	-0.337139
4.181000	-0.333920
4.182000	-0.326196
4.183000	-0.290470
4.184000	-0.242193
4.185000	-0.243159
4.186000	-0.270194
4.187000	-0.309138
4.188000	-0.308494
4.189000	-0.385094
4.190000	-0.437877
4.191000	-0.436912
4.192000	-0.455257
4.193000	-0.480039
4.194000	-0.479718
4.195000	-0.547950
4.196000	-0.659953
4.197000	-0.668643
4.198000	-0.794164
4.199000	-0.890075
4.200000	-0.915823
4.201000	-0.948330
4.202000	-0.937387
4.203000	-0.928053
4.204000	-0.935777
4.205000	-0.924191
4.206000	-0.908420
4.207000	-0.914535
4.208000	-0.924513
4.209000	-0.901340
4.210000	-0.902627
4.211000	-0.880098
4.212000	-0.846947
4.213000	-0.850166
4.214000	-0.832464
4.215000	-0.806072
4.216000	-0.808003
4.217000	-0.772278
4.218000	-0.709196
4.219000	-0.709196
4.220000	-0.652872
4.221000	-0.566295
4.222000	-0.489051
4.223000	-0.440130
4.224000	-0.292723
4.225000	-0.122787
4.226000	-0.119247
4.227000	0.027838
4.228000	0.101220
4.229000	0.100254
4.230000	0.121174
4.231000	0.154325
4.232000	0.136301
4.233000	0.153681
4.234000	0.170739
4.235000	0.170739
4.236000	0.189406
4.237000	0.225132
4.238000	0.225453
4.239000	0.249592
4.240000	0.269547
4.241000	0.275662
4.242000	0.291754
4.243000	0.328445
4.244000	0.344216
4.245000	0.346790
4.246000	0.365779
4.247000	0.399252
4.248000	0.397643
4.249000	0.414379
4.250000	0.416310
4.251000	0.410516
4.252000	0.414379
4.253000	0.431115
4.254000	0.431759
4.255000	0.462978
4.256000	0.502243
4.257000	0.497094
4.258000	0.553417
4.259000	0.607166
4.260000	0.607810
4.261000	0.644501
4.262000	0.667352
4.263000	0.675720
4.264000	0.692456
4.265000	0.671214
4.266000	0.689238
4.267000	0.687307
4.268000	0.705652
4.269000	0.724319
4.270000	0.733653
4.271000	0.764872
4.272000	0.783539
4.273000	0.777746
4.274000	0.814115
4.275000	0.882347
4.276000	0.889749
4.277000	0.968602
4.278000	1.097342
4.279000	1.100561
4.280000	1.351281
4.281000	1.519286
4.282000	1.315556
4.283000	0.359343
4.284000	0.510611
4.285000	0.621328
4.286000	0.447851
4.287000	0.730756
4.288000	1.038444
4.289000	1.077066
4.290000	1.064192
4.291000	0.911313
4.292000	0.747492
4.293000	0.724641
4.294000	0.650294
4.295000	0.614247
4.296000	0.583993
4.297000	0.587533
4.298000	0.567901
4.299000	0.555348
4.300000	0.553096
4.301000	0.534106
4.302000	0.527026
4.303000	0.526704
4.304000	0.536359
4.305000	0.529922
4.306000	0.537325
4.307000	0.523807
4.308000	0.534106
4.309000	0.527669
4.310000	0.535072
4.311000	0.523485
4.312000	0.523807
4.313000	0.504496
4.314000	0.489048
4.315000	0.477783
4.316000	0.473277
4.317000	0.462334
4.318000	0.503853
4.319000	0.502565
4.320000	0.539900
4.321000	0.575303
4.322000	0.576269
4.323000	0.581418
4.324000	0.597833
4.325000	0.592683
4.326000	0.590108
4.327000	0.581740
4.328000	0.584959
4.329000	0.546337
4.330000	0.516405
4.331000	0.516405
4.332000	0.447207
4.333000	0.407298
4.334000	0.395068
4.335000	0.369642
4.336000	0.351296
4.337000	0.360630
4.338000	0.364814
4.339000	0.384125
4.340000	0.396677
4.341000	0.398286
4.342000	0.395068
4.343000	0.380585
4.344000	0.388631
4.345000	0.369964
4.346000	0.358699
4.347000	0.357090
4.348000	0.337457
4.349000	0.346790
4.350000	0.325548
4.351000	0.318146
4.352000	0.313318
4.353000	0.314606
4.354000	0.327801
4.355000	0.309456
4.356000	0.300122
4.357000	0.285961
4.358000	0.268903
4.359000	0.266006
4.360000	0.275018
4.361000	0.264719
4.362000	0.257638
4.363000	0.267937
4.364000	0.249914
4.365000	0.236396
4.366000	0.242190
4.367000	0.225775
4.368000	0.239615
4.369000	0.231890
4.370000	0.258604
4.371000	0.281777
4.372000	0.283064
4.373000	0.378332
4.374000	0.625190
4.375000	0.625512
4.376000	-0.006278
4.377000	0.134370
4.378000	0.182326
4.379000	0.219982
4.380000	0.231247
4.381000	0.194234
4.382000	0.186831
4.383000	0.170739
4.384000	0.183613
4.385000	0.182004
4.386000	0.201637
4.387000	0.207108
4.388000	0.207752
4.389000	0.194234
4.390000	0.188119
4.391000	0.189728
4.392000	0.157543
4.393000	0.119887
4.394000	0.119243
4.395000	0.081265
4.396000	-0.068717
4.397000	-0.150788
4.398000	-0.389922
4.399000	-0.446889
4.400000	-0.092855
4.401000	-0.010784
4.402000	0.297226
4.403000	0.375757
4.404000	0.363848
4.405000	0.251523
4.406000	0.166877
4.407000	0.160440
4.408000	0.125037
4.409000	0.107335
4.410000	0.107013
4.411000	0.118921
4.412000	0.136623
4.413000	0.145313
4.414000	0.151428
4.415000	0.160118
4.416000	0.157543
4.417000	0.175245
4.418000	0.147566
4.419000	0.126324
4.420000	0.100254
4.421000	0.071610
4.422000	0.090921
4.423000	0.093495
4.424000	0.135979
4.425000	0.163015
4.426000	0.163337
4.427000	0.225775
4.428000	0.330698
4.429000	0.338100
4.430000	0.403114
4.431000	0.148853
4.432000	0.196165
4.433000	0.127289
4.434000	0.932555
4.435000	0.837288
4.436000	-0.605560
4.437000	-0.887500
4.438000	-0.697609
4.439000	-0.272125
4.440000	-0.075475
4.441000	-0.091246
4.442000	-0.110557
4.443000	-0.070004
4.444000	-0.017221
4.445000	-0.017864
4.446000	-0.044900
4.447000	-0.056164
4.448000	-0.056808
4.449000	-0.041038
4.450000	-0.012715
4.451000	-0.006278
4.452000	-0.003381
4.453000	-0.043934
4.454000	-0.043290
4.455000	-0.019796
4.456000	-0.000163
4.457000	-0.009818
4.458000	0.003056
4.459000	-0.015611
4.460000	-0.009174
4.461000	-0.038141
4.462000	-0.296907
4.463000	-0.224491
4.464000	-0.205180
4.465000	0.158509
4.466000	0.261822
4.467000	0.256351
4.468000	0.126646
4.469000	0.020757
4.470000	0.022689
4.471000	-0.040716
4.472000	-0.069038
4.473000	-0.068395
4.474000	-0.085775
4.475000	-0.090280
4.476000	-0.084165
4.477000	-0.052624
4.478000	-0.017221
4.479000	-0.015290
4.480000	0.028160
4.481000	0.056483
4.482000	0.065816
4.483000	0.067426
4.484000	0.084484
4.485000	0.039747
4.486000	0.032022
4.487000	0.011102
4.488000	-0.006922
4.489000	-0.005312
4.490000	-0.011427
4.491000	-0.036853
4.492000	-0.035888
4.493000	-0.065498
4.494000	-0.076441
4.495000	-0.072901
4.496000	-0.058417
4.497000	-0.021083
4.498000	-0.019474
4.499000	0.012068
4.500000	0.034597
4.501000	0.036206
4.502000	0.014642
4.503000	-0.052946
4.504000	-0.121500
4.505000	-0.134696
4.506000	-0.171064
4.507000	-0.143064
4.508000	-0.133730
4.509000	-0.091890
4.510000	-0.073222
4.511000	-0.077085
4.512000	-0.075154
4.513000	-0.040072
4.514000	-0.040394
4.515000	-0.042003
4.516000	-0.044900
4.517000	-0.046509
4.518000	-0.046187
4.519000	-0.046831
4.520000	-0.047796
4.521000	-0.045865
4.522000	-0.045222
4.523000	-0.043612
4.524000	-0.041359
4.525000	-0.041359
4.526000	-0.039750
4.527000	-0.040716
4.528000	-0.040072
4.529000	-0.041359
4.530000	-0.040072
4.531000	-0.040716
4.532000	-0.043290
4.533000	-0.045865
4.534000	-0.048118
4.535000	-0.048440
4.536000	-0.047153
4.537000	-0.047475
4.538000	-0.046509
4.539000	-0.045222
4.540000	-0.044578
4.541000	-0.042003
4.542000	-0.042003
4.543000	-0.041038
4.544000	-0.041038
4.545000	-0.041681
4.546000	-0.042325
4.547000	-0.041681
4.548000	-0.042325
4.549000	-0.045865
4.550000	-0.047475
4.551000	-0.048440
4.552000	-0.049084
4.553000	-0.048440
4.554000	-0.046831
4.555000	-0.055521
4.556000	-0.053268
4.557000	-0.032026
4.558000	-0.042325
4.559000	-0.037819
4.560000	-0.042969
4.561000	-0.057130
4.562000	-0.050371
4.563000	-0.076441
4.564000	-0.061636
4.565000	-0.088349
4.566000	-0.099614
4.567000	-0.120534
4.568000	-0.142420
4.569000	-0.142420
4.570000	-0.161087
4.571000	-0.148857
4.572000	-0.159478
4.573000	-0.146926
4.574000	-0.136627
4.575000	-0.136949
4.576000	-0.134374
4.577000	-0.132443
4.578000	-0.143385
4.579000	-0.124718
4.580000	-0.106695
4.581000	-0.115385
4.582000	-0.079016
4.583000	-0.062923
4.584000	-0.060348
4.585000	-0.045865
4.586000	-0.020117
4.587000	-0.001450
4.588000	0.012068
4.589000	0.046505
4.590000	0.097036
4.591000	0.097679
4.592000	0.129542
4.593000	0.118600
4.594000	0.109910
4.595000	0.010780
4.596000	-0.088993
4.597000	-0.089959
4.598000	-0.135661
4.599000	-0.128902
4.600000	-0.138880
4.601000	-0.113775
4.602000	-0.095430
4.603000	-0.103154
4.604000	-0.105729
4.605000	-0.123109
4.606000	-0.133408
4.607000	-0.146282
4.608000	-0.212261
4.609000	-0.325230
4.610000	-0.331667
4.611000	-0.248308
4.612000	0.119565
4.613000	0.129542
4.614000	0.217729
4.615000	0.088024
4.616000	0.094139
4.617000	0.081587
4.618000	0.053264
4.619000	0.047149
4.620000	0.065494
4.621000	0.099932
4.622000	0.100576
4.623000	0.215154
4.624000	0.340353
4.625000	0.328767
4.626000	-0.025267
4.627000	1.075456
4.628000	0.571763
4.629000	1.213851
4.630000	-0.606204
4.631000	-1.343560
4.632000	-1.354825
4.633000	-0.961204
4.634000	-0.232216
4.635000	-0.212905
4.636000	0.179751
4.637000	0.308490
4.638000	0.301410
4.639000	0.144026
4.640000	0.009815
4.641000	0.004987
4.642000	-0.033313
4.643000	0.005952
4.644000	0.011746
4.645000	0.068391
4.646000	0.105726
4.647000	0.114737
4.648000	0.126968
4.649000	0.157865
4.650000	0.192303
4.651000	0.196809
4.652000	0.266650
4.653000	0.384769
4.654000	0.393137
4.655000	0.593005
4.656000	0.806712
4.657000	0.947039
4.658000	0.537325
4.659000	-0.102833
4.660000	0.012068
4.661000	0.623902
4.662000	0.473599
4.663000	0.480358
4.664000	0.484220
4.665000	0.320721
4.666000	0.312031
4.667000	0.073219
4.668000	-0.103476
4.669000	-0.166880
4.670000	-0.226744
4.671000	-0.292723
4.672000	-0.318149
4.673000	-0.307850
4.674000	-0.313644
4.675000	-0.285643
4.676000	-0.292402
4.677000	-0.263113
4.678000	-0.224813
4.679000	-0.217411
4.680000	-0.188444
4.681000	-0.143385
4.682000	-0.138236
4.683000	-0.110557
4.684000	-0.081912
4.685000	-0.082556
4.686000	-0.068073
4.687000	-0.048440
4.688000	-0.044256
4.689000	-0.046831
4.690000	-0.034279
4.691000	-0.017864
4.692000	-0.013359
4.693000	0.016895
4.694000	0.051977
4.695000	0.051655
4.696000	0.088989
4.697000	0.092208
4.698000	0.098323
4.699000	0.086093
4.700000	0.082874
4.701000	0.074184
4.702000	0.086093
4.703000	0.099610
4.704000	0.086736
4.705000	0.094783
4.706000	0.084162
4.707000	0.089311
4.708000	0.079978
4.709000	0.070000
4.710000	0.065816
4.711000	0.054873
4.712000	0.069357
4.713000	0.054552
4.714000	0.053908
4.715000	0.048436
4.716000	0.047149
4.717000	0.045540
4.718000	0.035884
4.719000	0.055839
4.720000	0.056805
4.721000	0.083196
4.722000	0.106047
4.723000	0.107013
4.724000	0.127289
4.725000	0.154968
4.726000	0.155934
4.727000	0.167521
4.728000	0.193590
4.729000	0.188441
4.730000	0.229637
4.731000	0.266650
4.732000	0.279846
4.733000	0.289501
4.734000	0.272443
4.735000	0.253454
4.736000	0.254098
4.737000	0.212901
4.738000	0.180073
4.739000	0.181038
4.740000	0.174923
4.741000	0.192625
4.742000	0.187153
4.743000	0.131473
4.744000	0.025263
4.745000	0.025585
4.746000	-0.038141
4.747000	-0.043290
4.748000	-0.043934
4.749000	-0.044900
4.750000	-0.029451
4.751000	-0.036532
4.752000	-0.025267
4.753000	-0.007565
4.754000	0.039747
4.755000	0.046505
4.756000	0.097036
4.757000	0.162371
4.758000	0.164624
4.759000	0.138232
4.760000	0.094139
4.761000	0.089955
4.762000	-0.170743
4.763000	0.220626
4.764000	0.224166
4.765000	-0.100580
4.766000	0.145313
4.767000	0.150463
4.768000	0.232212
4.769000	0.263110
4.770000	0.269869
4.771000	0.282099
4.772000	0.238005
4.773000	0.207108
4.774000	0.180395
4.775000	0.137589
4.776000	0.101542
4.777000	0.108300
4.778000	0.093817
4.779000	0.107979
4.780000	0.107979
4.781000	0.125680
4.782000	0.086415
4.783000	0.083840
4.784000	0.037494
4.785000	-0.038785
4.786000	-0.036532
4.787000	-0.085775
4.788000	-0.073866
4.789000	-0.072579
4.790000	-0.021405
4.791000	0.032988
4.792000	0.043931
4.793000	0.093817
4.794000	0.157221
4.795000	0.205177
4.796000	0.219660
4.797000	0.231890
4.798000	0.199384
4.799000	0.197131
4.800000	0.162371
4.801000	0.138554
4.802000	0.138554
4.803000	0.123427
4.804000	0.113450
4.805000	0.121496
4.806000	0.107335
4.807000	0.118278
4.808000	0.111841
4.809000	0.138876
4.810000	0.157543
4.811000	0.157865
4.812000	0.176210
4.813000	0.183291
4.814000	0.192947
4.815000	0.191981
4.816000	0.197774
4.817000	0.199705
4.818000	0.195521
4.819000	0.214189
4.820000	0.234143
4.821000	0.234143
4.822000	0.246052
4.823000	0.221591
4.824000	0.230925
4.825000	0.201637
4.826000	0.157865
4.827000	0.157221
4.828000	0.109588
4.829000	0.072253
4.830000	0.071610
4.831000	0.052621
4.832000	0.061954
4.833000	0.050046
4.834000	0.057770
4.835000	0.068391
4.836000	0.053908
4.837000	0.051977
4.838000	0.048115
4.839000	0.040712
4.840000	0.042965
4.841000	0.051655
4.842000	0.064851
4.843000	0.064851
4.844000	0.057448
4.845000	0.072897
4.846000	0.065173
4.847000	0.050368
4.848000	0.035884
4.849000	0.030735
4.850000	-0.036210
4.851000	-0.062601
4.852000	-0.062601
4.853000	-0.048440
4.854000	-0.034922
4.855000	-0.024945
4.856000	-0.003381
4.857000	0.017217
4.858000	0.032022
4.859000	0.038137
4.860000	0.089955
4.861000	0.112806
4.862000	0.107657
4.863000	0.075472
4.864000	-0.136305
4.865000	-0.153041
4.866000	-0.479396
4.867000	-0.366749
4.868000	-0.348403
4.869000	0.075150
4.870000	0.376722
4.871000	0.384125
4.872000	0.376400
4.873000	0.253776
4.874000	0.256029
4.875000	0.192303
4.876000	0.167842
4.877000	0.169130
4.878000	0.156578
4.879000	0.186831
4.880000	0.206142
4.881000	0.200349
4.882000	0.217407
4.883000	0.283708
4.884000	0.337457
4.885000	0.255063
4.886000	0.649972
4.887000	1.061295
4.888000	0.576269
4.889000	-0.658666
4.890000	-0.717886
4.891000	-0.912926
4.892000	-0.354518
4.893000	-0.339070
4.894000	-0.152397
4.895000	-0.096074
4.896000	-0.089637
4.897000	-0.059705
4.898000	-0.088027
4.899000	-0.076119
4.900000	-0.092533
4.901000	-0.100258
4.902000	-0.068073
4.903000	-0.067429
4.904000	-0.027842
4.905000	-0.009496
4.906000	-0.008853
4.907000	0.005309
4.908000	0.018183
4.909000	0.013999
4.910000	0.000159
4.911000	0.014642
4.912000	0.014642
4.913000	0.051977
4.914000	0.070644
4.915000	0.071931
4.916000	0.106691
4.917000	0.157865
4.918000	0.164946
4.919000	0.175889
4.920000	0.123105
4.921000	0.011424
4.922000	0.008205
4.923000	-0.102511
4.924000	-0.164306
4.925000	-0.170743
4.926000	-0.150788
4.927000	-0.093821
4.928000	-0.093821
4.929000	-0.068395
4.930000	-0.061314
4.931000	-0.069360
4.932000	-0.082556
4.933000	-0.100901
4.934000	-0.101545
4.935000	-0.082556
4.936000	-0.063889
4.937000	-0.061958
4.938000	-0.037175
4.939000	-0.024623
4.940000	-0.005634
4.941000	0.005631
4.942000	0.025585
4.943000	0.036850
4.944000	0.037172
4.945000	0.017539
4.946000	0.013355
4.947000	0.016573
4.948000	-0.021727
4.949000	-0.046831
4.950000	-0.048762
4.951000	-0.075797
4.952000	-0.095430
4.953000	-0.087706
4.954000	-0.102189
4.955000	-0.112488
4.956000	-0.110879
4.957000	-0.098970
4.958000	-0.061636
4.959000	-0.050371
4.960000	-0.023980
4.961000	-0.004990
4.962000	-0.019474
4.963000	-0.005956
4.964000	-0.002416
4.965000	0.004021
4.966000	-0.005634
4.967000	0.006596
4.968000	0.009815
4.969000	0.005952
4.970000	-0.008531
4.971000	-0.030738
4.972000	-0.018508
4.973000	0.028160
4.974000	0.052299
4.975000	0.062598
4.976000	0.080621
4.977000	0.108300
4.978000	0.107335
4.979000	0.144991
4.980000	0.201315
4.981000	0.241546
4.982000	0.275662
4.983000	0.382837
4.984000	0.555027
4.985000	0.568866
4.986000	0.729791
4.987000	0.307847
4.988000	0.260535
4.989000	-0.055199
4.990000	0.388631
4.991000	0.378653
4.992000	0.545693
4.993000	0.613281
4.994000	0.586890
4.995000	0.380263
4.996000	0.098645
4.997000	0.091564
4.998000	-0.116350
4.999000	-0.223204
5.000000	-0.223204
5.001000	-0.298838
5.002000	-0.323299
5.003000	-0.322333
5.004000	-0.325230
5.005000	-0.300448
5.006000	-0.298838
5.007000	-0.270516
5.008000	-0.225135
5.009000	-0.207112
5.010000	-0.188444
5.011000	-0.131155
5.012000	-0.038463
5.013000	-0.038141
5.014000	0.017217
5.015000	-0.014646
5.016000	-0.015611
5.017000	-0.045543
5.018000	-0.063889
5.019000	-0.063245
5.020000	-0.080947
5.021000	-0.060992
5.022000	-0.059061
5.023000	-0.046187
5.024000	-0.052302
5.025000	-0.027198
5.026000	0.000159
5.027000	-0.008531
5.028000	0.009171
5.029000	0.027838
5.030000	0.026229
5.031000	0.045218
5.032000	0.060989
5.033000	0.053264
5.034000	0.060667
5.035000	0.067426
5.036000	0.061310
5.037000	0.054873
5.038000	0.043609
5.039000	0.062920
5.040000	0.074184
5.041000	0.093817
5.042000	0.087058
5.043000	0.093495
5.044000	0.115059
5.045000	0.141773
5.046000	0.140485
5.047000	0.157543
5.048000	0.192303
5.049000	0.191337
5.050000	0.220947
5.051000	0.259247
5.052000	0.267616
5.053000	0.331020
5.054000	0.538612
5.055000	0.637420
5.056000	-0.130512
5.057000	-0.064854
5.058000	-0.057130
5.059000	0.060989
5.060000	0.113450
5.061000	0.122462
5.062000	0.123427
5.063000	0.129221
5.064000	0.107335
5.065000	0.107013
5.066000	0.116668
5.067000	0.143060
5.068000	0.147888
5.069000	0.163015
5.070000	0.148531
5.071000	0.169130
5.072000	0.180395
5.073000	0.192303
5.074000	0.187475
5.075000	0.199062
5.076000	0.229959
5.077000	0.228994
5.078000	0.274374
5.079000	0.303019
5.080000	0.310421
5.081000	0.313640
5.082000	0.294007
5.083000	0.283386
5.084000	0.285639
5.085000	0.255707
5.086000	0.242511
5.087000	0.250558
5.088000	0.221591
5.089000	0.205177
5.090000	0.198418
5.091000	0.169774
5.092000	0.192625
5.093000	0.192303
5.094000	0.199705
5.095000	0.209361
5.096000	0.197131
5.097000	0.207108
5.098000	0.223844
5.099000	0.222557
5.100000	0.256351
5.101000	0.279524
5.102000	0.298191
5.103000	0.325870
5.104000	0.375435
5.105000	0.366423
5.106000	0.374791
5.107000	0.405045
5.108000	0.368354
5.109000	0.361274
5.110000	0.293363
5.111000	0.206786
5.112000	0.198096
5.113000	0.144347
5.114000	-0.153685
5.115000	-0.210974
5.116000	-0.125040
5.117000	-0.031382
5.118000	-0.030095
5.119000	0.139198
5.120000	0.384447
5.121000	0.387665
5.122000	0.453644
5.123000	0.387665
5.124000	0.303019
5.125000	0.248948
5.126000	0.181360
5.127000	0.150784
5.128000	0.149497
5.129000	0.135658
5.130000	0.084805
5.131000	0.076115
5.132000	0.011424
5.133000	0.073863
5.134000	0.089955
5.135000	0.454610
5.136000	0.646432
5.137000	0.653512
5.138000	0.710802
5.139000	0.449460
5.140000	1.407604
5.141000	0.337779
5.142000	1.345166
5.143000	0.304950
5.144000	-0.683770
5.145000	-0.467809
5.146000	-0.216123
5.147000	-0.165271
5.148000	-0.028164
5.149000	0.034597
5.150000	0.033631
5.151000	0.075472
5.152000	0.109588
5.153000	0.110875
5.154000	0.099289
5.155000	0.068069
5.156000	0.061954
5.157000	0.033631
5.158000	0.060023
5.159000	0.052299
5.160000	0.070966
5.161000	0.077725
5.162000	0.077403
5.163000	0.061632
5.164000	0.016895
5.165000	-0.039428
5.166000	-0.085775
5.167000	-0.149822
5.168000	-0.172674
5.169000	-0.171064
5.170000	-0.184904
5.171000	-0.187479
5.172000	-0.185548
5.173000	-0.237044
5.174000	-0.266654
5.175000	-0.266975
5.176000	-0.292402
5.177000	-0.311391
5.178000	-0.312356
5.179000	-0.316540
5.180000	-0.333598
5.181000	-0.338426
5.182000	-0.322012
5.183000	-0.285643
5.184000	-0.275344
5.185000	-0.236722
5.186000	-0.262470
5.187000	-0.291758
5.188000	-0.300448
5.189000	-0.375117
5.190000	-0.430153
5.191000	-0.429509
5.192000	-0.455579
5.193000	-0.475212
5.194000	-0.475212
5.195000	-0.538616
5.196000	-0.657378
5.197000	-0.666068
5.198000	-0.791589
5.199000	-0.885569
5.200000	-0.893293
5.201000	-0.942858
5.202000	-0.931272
5.203000	-0.937065
5.204000	-0.929662
5.205000	-0.916145
5.206000	-0.908098
5.207000	-0.906167
5.208000	-0.916467
5.209000	-0.896512
5.210000	-0.895868
5.211000	-0.870120
5.212000	-0.841798
5.213000	-0.845982
5.214000	-0.830533
5.215000	-0.802532
5.216000	-0.803498
5.217000	-0.765841
5.218000	-0.702759
5.219000	-0.702759
5.220000	-0.645792
5.221000	-0.558892
5.222000	-0.549881
5.223000	-0.433371
5.224000	-0.286286
5.225000	-0.279849
5.226000	-0.115063
5.227000	0.031700
5.228000	0.077081
5.229000	0.104116
5.230000	0.124071
5.231000	0.155612
5.232000	0.138232
5.233000	0.155934
5.234000	0.174923
5.235000	0.174923
5.236000	0.200671
5.237000	0.228350
5.238000	0.229637
5.239000	0.254742
5.240000	0.275018
5.241000	0.274374
5.242000	0.293042
5.243000	0.331020
5.244000	0.329732
5.245000	0.348078
5.246000	0.366101
5.247000	0.378010
5.248000	0.395390
5.249000	0.413091
5.250000	0.415988
5.251000	0.413735
5.252000	0.417275
5.253000	0.434655
5.254000	0.434977
5.255000	0.465874
5.256000	0.506106
5.257000	0.499990
5.258000	0.555992
5.259000	0.607810
5.260000	0.608454
5.261000	0.645466
5.262000	0.666708
5.263000	0.666065
5.264000	0.690203
5.265000	0.668961
5.266000	0.662202
5.267000	0.687307
5.268000	0.706296
5.269000	0.716595
5.270000	0.735262
5.271000	0.765516
5.272000	0.786436
5.273000	0.781286
5.274000	0.814759
5.275000	0.882669
5.276000	0.889749
5.277000	0.965706
5.278000	1.096376
5.279000	1.097986
5.280000	1.348062
5.281000	1.515424
5.282000	1.445583
5.283000	0.356768
5.284000	0.508037
5.285000	0.408264
5.286000	0.447207
5.287000	0.730112
5.288000	1.033616
5.289000	1.078675
5.290000	1.064513
5.291000	0.913566
5.292000	0.746527
5.293000	0.746527
5.294000	0.649007
5.295000	0.611350
5.296000	0.602982
5.297000	0.583027
5.298000	0.561785
5.299000	0.558567
5.300000	0.550199
5.301000	0.531532
5.302000	0.526704
5.303000	0.525738
5.304000	0.533463
5.305000	0.528313
5.306000	0.537647
5.307000	0.520589
5.308000	0.532175
5.309000	0.524129
5.310000	0.531210
5.311000	0.520267
5.312000	0.519945
5.313000	0.499025
5.314000	0.481967
5.315000	0.480680
5.316000	0.469737
5.317000	0.457506
5.318000	0.470380
5.319000	0.499990
5.320000	0.538290
5.321000	0.556314
5.322000	0.575947
5.323000	0.580131
5.324000	0.595901
5.325000	0.589786
5.326000	0.581096
5.327000	0.578200
5.328000	0.581418
5.329000	0.543440
5.330000	0.511255
5.331000	0.509646
5.332000	0.439483
5.333000	0.402470
5.334000	0.396355
5.335000	0.366423
5.336000	0.347756
5.337000	0.352584
5.338000	0.361595
5.339000	0.383481
5.340000	0.385090
5.341000	0.395711
5.342000	0.391206
5.343000	0.380263
5.344000	0.383803
5.345000	0.364814
5.346000	0.352906
5.347000	0.350331
5.348000	0.331020
5.349000	0.339388
5.350000	0.320721
5.351000	0.313318
5.352000	0.310743
5.353000	0.310421
5.354000	0.322652
5.355000	0.307203
5.356000	0.308490
5.357000	0.282742
5.358000	0.264719
5.359000	0.264719
5.360000	0.272443
5.361000	0.261179
5.362000	0.259247
5.363000	0.261822
5.364000	0.241868
5.365000	0.228994
5.366000	0.235431
5.367000	0.219982
5.368000	0.236074
5.369000	0.228994
5.370000	0.248305
5.371000	0.279202
5.372000	0.281133
5.373000	0.375435
5.374000	0.622293
5.375000	0.629052
5.376000	-0.009496
5.377000	0.130186
5.378000	0.133726
5.379000	0.217407
5.380000	0.226097
5.381000	0.221269
5.382000	0.180395
5.383000	0.164302
5.384000	0.172670
5.385000	0.180716
5.386000	0.199705
5.387000	0.205499
5.388000	0.206142
5.389000	0.189084
5.390000	0.185544
5.391000	0.187153
5.392000	0.153037
5.393000	0.116025
5.394000	0.115381
5.395000	0.077081
5.396000	-0.074188
5.397000	-0.086096
5.398000	-0.396681
5.399000	-0.453004
5.400000	-0.426934
5.401000	-0.014002
5.402000	0.294973
5.403000	0.318790
5.404000	0.362561
5.405000	0.251201
5.406000	0.179429
5.407000	0.158509
5.408000	0.122140
5.409000	0.104116
5.410000	0.103794
5.411000	0.111197
5.412000	0.133726
5.413000	0.139198
5.414000	0.146600
5.415000	0.153359
5.416000	0.153359
5.417000	0.172026
5.418000	0.146279
5.419000	0.143704
5.420000	0.098323
5.421000	0.069678
5.422000	0.071931
5.423000	0.092530
5.424000	0.134692
5.425000	0.147566
5.426000	0.161084
5.427000	0.223200
5.428000	0.329089
5.429000	0.335848
5.430000	0.421137
5.431000	0.143382
5.432000	0.191659
5.433000	0.868186
5.434000	0.929981
5.435000	0.836001
5.436000	-0.595583
5.437000	-0.887822
5.438000	-0.752645
5.439000	-0.270838
5.440000	-0.074510
5.441000	-0.070004
5.442000	-0.112166
5.443000	-0.070648
5.444000	-0.063245
5.445000	-0.018508
5.446000	-0.047475
5.447000	-0.053268
5.448000	-0.061636
5.449000	-0.044578
5.450000	-0.015611
5.451000	-0.008209
5.452000	-0.003381
5.453000	-0.043612
5.454000	-0.043290
5.455000	-0.021083
5.456000	0.000803
5.457000	-0.007887
5.458000	0.005309
5.459000	-0.016899
5.460000	0.003056
5.461000	-0.039750
5.462000	-0.299160
5.463000	-0.367392
5.464000	-0.207112
5.465000	0.154325
5.466000	0.198418
5.467000	0.254098
5.468000	0.126646
5.469000	0.026229
5.470000	0.022045
5.471000	-0.040072
5.472000	-0.067429
5.473000	-0.066142
5.474000	-0.091246
5.475000	-0.091890
5.476000	-0.085453
5.477000	-0.054233
5.478000	-0.015290
5.479000	-0.017864
5.480000	0.025907
5.481000	0.053586
5.482000	0.050689
5.483000	0.066460
5.484000	0.085127
5.485000	0.065816
5.486000	0.033631
5.487000	0.011424
5.488000	0.001447
5.489000	-0.003059
5.490000	-0.009496
5.491000	-0.036532
5.492000	-0.035888
5.493000	-0.065176
5.494000	-0.076763
5.495000	-0.073866
5.496000	-0.056808
5.497000	-0.025589
5.498000	-0.023336
5.499000	0.009493
5.500000	0.032344
5.501000	0.039103
5.502000	0.014642
5.503000	-0.053590
5.504000	-0.059061
5.505000	-0.132121
5.506000	-0.167846
5.507000	-0.162053
5.508000	-0.133086
5.509000	-0.092533
5.510000	-0.076441
5.511000	-0.077406
5.512000	-0.073222
5.513000	-0.042325
5.514000	-0.044578
5.515000	-0.046509
5.516000	-0.045865
5.517000	-0.047475
5.518000	-0.046187
5.519000	-0.046187
5.520000	-0.045222
5.521000	-0.043934
5.522000	-0.042325
5.523000	-0.040394
5.524000	-0.040072
5.525000	-0.039428
5.526000	-0.039750
5.527000	-0.039428
5.528000	-0.040072
5.529000	-0.039750
5.530000	-0.042647
5.531000	-0.044900
5.532000	-0.046831
5.533000	-0.046831
5.534000	-0.046509
5.535000	-0.046509
5.536000	-0.046509
5.537000	-0.044900
5.538000	-0.042647
5.539000	-0.040716
5.540000	-0.040394
5.541000	-0.039750
5.542000	-0.040072
5.543000	-0.039428
5.544000	-0.040072
5.545000	-0.040394
5.546000	-0.042003
5.547000	-0.043290
5.548000	-0.046187
5.549000	-0.046831
5.550000	-0.047475
5.551000	-0.047796
5.552000	-0.046831
5.553000	-0.045543
5.554000	-0.044900
5.555000	-0.050371
5.556000	-0.049727
5.557000	-0.029129
5.558000	-0.040072
5.559000	-0.036532
5.560000	-0.040394
5.561000	-0.054233
5.562000	-0.047475
5.563000	-0.076441
5.564000	-0.063889
5.565000	-0.080303
5.566000	-0.099292
5.567000	-0.118603
5.568000	-0.121822
5.569000	-0.140167
5.570000	-0.157869
5.571000	-0.150788
5.572000	-0.154328
5.573000	-0.140489
5.574000	-0.132764
5.575000	-0.132443
5.576000	-0.130190
5.577000	-0.128902
5.578000	-0.141776
5.579000	-0.123431
5.580000	-0.106051
5.581000	-0.116672
5.582000	-0.079338
5.583000	-0.062280
5.584000	-0.061314
5.585000	-0.042647
5.586000	-0.014968
5.587000	-0.022370
5.588000	0.016252
5.589000	0.052299
5.590000	0.064851
5.591000	0.102829
5.592000	0.134048
5.593000	0.124715
5.594000	0.112806
5.595000	0.014964
5.596000	-0.086418
5.597000	-0.088027
5.598000	-0.134696
5.599000	-0.128259
5.600000	-0.136949
5.601000	-0.109591
5.602000	-0.089637
5.603000	-0.097039
5.604000	-0.098327
5.605000	-0.116028
5.606000	-0.114419
5.607000	-0.139845
5.608000	-0.206790
5.609000	-0.206146
5.610000	-0.326839
5.611000	-0.243480
5.612000	-0.070648
5.613000	0.133083
5.614000	0.219982
5.615000	0.090921
5.616000	0.097357
5.617000	0.086415
5.618000	0.061310
5.619000	0.054552
5.620000	0.073219
5.621000	0.108300
5.622000	0.110231
5.623000	0.222557
5.624000	0.349043
5.625000	0.356768
5.626000	-0.020439
5.627000	1.081571
5.628000	1.293992
5.629000	1.219001
5.630000	-0.603951
5.631000	-0.732369
5.632000	-1.351284
5.633000	-0.957663
5.634000	-0.446567
5.635000	-0.204859
5.636000	0.186510
5.637000	0.316858
5.638000	0.310100
5.639000	0.161727
5.640000	0.018505
5.641000	0.012711
5.642000	-0.031382
5.643000	0.013355
5.644000	0.020114
5.645000	0.076437
5.646000	0.113450
5.647000	0.110553
5.648000	0.132117
5.649000	0.164302
5.650000	0.163980
5.651000	0.204211
5.652000	0.275984
5.653000	0.317180
5.654000	0.401505
5.655000	0.602982
5.656000	0.801563
5.657000	0.957981
5.658000	0.575303
5.659000	-0.095752
5.660000	0.019792
5.661000	0.763907
5.662000	0.479714
5.663000	0.487117
5.664000	0.502565
5.665000	0.325227
5.666000	0.317180
5.667000	0.081265
5.668000	-0.094786
5.669000	-0.095430
5.670000	-0.215158
5.671000	-0.281459
5.672000	-0.278884
5.673000	-0.296586
5.674000	-0.302379
5.675000	-0.286608
5.676000	-0.282746
5.677000	-0.252492
5.678000	-0.216445
5.679000	-0.209686
5.680000	-0.180398
5.681000	-0.137914
5.682000	-0.131799
5.683000	-0.102833
5.684000	-0.073544
5.685000	-0.071613
5.686000	-0.056164
5.687000	-0.038141
5.688000	-0.036210
5.689000	-0.034279
5.690000	-0.021727
5.691000	-0.021405
5.692000	-0.003059
5.693000	0.026551
5.694000	0.034275
5.695000	0.059701
5.696000	0.097036
5.697000	0.097036
5.698000	0.103794
5.699000	0.091886
5.700000	0.090921
5.701000	0.083196
5.702000	0.103151
5.703000	0.110875
5.704000	0.096392
5.705000	0.111197
5.706000	0.096070
5.707000	0.101220
5.708000	0.089955
5.709000	0.078368
5.710000	0.070644
5.711000	0.063242
5.712000	0.077725
5.713000	0.076759
5.714000	0.058736
5.715000	0.053264
5.716000	0.054873
5.717000	0.051655
5.718000	0.044252
5.719000	0.063563
5.720000	0.065173
5.721000	0.092208
5.722000	0.117634
5.723000	0.117312
5.724000	0.137267
5.725000	0.163658
5.726000	0.163337
5.727000	0.174923
5.728000	0.200349
5.729000	0.191659
5.730000	0.235109
5.731000	0.270512
5.732000	0.260857
5.733000	0.294651
5.734000	0.278558
5.735000	0.284674
5.736000	0.262788
5.737000	0.220626
5.738000	0.198740
5.739000	0.189406
5.740000	0.180395
5.741000	0.199705
5.742000	0.193268
5.743000	0.144347
5.744000	0.030413
5.745000	0.030413
5.746000	-0.034601
5.747000	-0.039750
5.748000	-0.041681
5.749000	-0.041681
5.750000	-0.023658
5.751000	-0.040072
5.752000	-0.020439
5.753000	-0.000806
5.754000	-0.003703
5.755000	0.054230
5.756000	0.105404
5.757000	0.132117
5.758000	0.169130
5.759000	0.142416
5.760000	0.102507
5.761000	0.093173
5.762000	-0.167202
5.763000	0.224166
5.764000	0.224488
5.765000	-0.191341
5.766000	0.146922
5.767000	0.153359
5.768000	0.237040
5.769000	0.267616
5.770000	0.275018
5.771000	0.287892
5.772000	0.245086
5.773000	0.241868
5.774000	0.185866
5.775000	0.141129
5.776000	0.141129
5.777000	0.110875
5.778000	0.095105
5.779000	0.103473
5.780000	0.108300
5.781000	0.124715
5.782000	0.085771
5.783000	0.085127
5.784000	0.039747
5.785000	-0.034922
5.786000	-0.034279
5.787000	-0.082556
5.788000	-0.070004
5.789000	-0.067429
5.790000	-0.018508
5.791000	0.035241
5.792000	0.035241
5.793000	0.094461
5.794000	0.157865
5.795000	0.156900
5.796000	0.220304
5.797000	0.228350
5.798000	0.211292
5.799000	0.194234
5.800000	0.160118
5.801000	0.141773
5.802000	0.138554
5.803000	0.124715
5.804000	0.113772
5.805000	0.122462
5.806000	0.109910
5.807000	0.119887
5.808000	0.111519
5.809000	0.142094
5.810000	0.155612
5.811000	0.154647
5.812000	0.173314
5.813000	0.179429
5.814000	0.179751
5.815000	0.186510
5.816000	0.192625
5.817000	0.177820
5.818000	0.193912
5.819000	0.211614
5.820000	0.220947
5.821000	0.233178
5.822000	0.244121
5.823000	0.220947
5.824000	0.229316
5.825000	0.199062
5.826000	0.154003
5.827000	0.152716
5.828000	0.105404
5.829000	0.065494
5.830000	0.064529
5.831000	0.040390
5.832000	0.053264
5.833000	0.042321
5.834000	0.051977
5.835000	0.064207
5.836000	0.045862
5.837000	0.047471
5.838000	0.045218
5.839000	0.046505
5.840000	0.039425
5.841000	0.048115
5.842000	0.055839
5.843000	0.059379
5.844000	0.051655
5.845000	0.065494
5.846000	0.058736
5.847000	0.036850
5.848000	0.027194
5.849000	0.022045
5.850000	-0.041359
5.851000	-0.068073
5.852000	-0.066464
5.853000	-0.051980
5.854000	-0.039428
5.855000	-0.037175
5.856000	-0.004669
5.857000	0.014320
5.858000	0.014320
5.859000	0.034275
5.860000	0.085449
5.861000	0.092852
5.862000	0.102829
5.863000	0.069678
5.864000	-0.127615
5.865000	-0.161087
5.866000	-0.481005
5.867000	-0.370933
5.868000	-0.350978
5.869000	0.054873
5.870000	0.374469
5.871000	0.382516
5.872000	0.396355
5.873000	0.251845
5.874000	0.253454
5.875000	0.189406
5.876000	0.163980
5.877000	0.170739
5.878000	0.151428
5.879000	0.181360
5.880000	0.181038
5.881000	0.192625
5.882000	0.211292
5.883000	0.247661
5.884000	0.332951
5.885000	0.267294
5.886000	0.648041
5.887000	1.060329
5.888000	-0.020439
5.889000	-0.660275
5.890000	-0.718851
5.891000	-0.921616
5.892000	-0.356449
5.893000	-0.342610
5.894000	-0.158191
5.895000	-0.099936
5.896000	-0.101545
5.897000	-0.066142
5.898000	-0.092855
5.899000	-0.095430
5.900000	-0.094464
5.901000	-0.103154
5.902000	-0.090280
5.903000	-0.066142
5.904000	-0.029129
5.905000	-0.014324
5.906000	-0.006278
5.907000	0.005631
5.908000	0.016252
5.909000	0.013355
5.910000	-0.001450
5.911000	0.012389
5.912000	0.012389
5.913000	0.044252
5.914000	0.065173
5.915000	0.067426
5.916000	0.105082
5.917000	0.156900
5.918000	0.155290
5.919000	0.175889
5.920000	0.123749
5.921000	0.124393
5.922000	0.012068
5.923000	-0.100258
5.924000	-0.127937
5.925000	-0.169777
5.926000	-0.150788
5.927000	-0.094786
5.928000	-0.094786
5.929000	-0.067751
5.930000	-0.062601
5.931000	-0.072257
5.932000	-0.093177
5.933000	-0.101223
5.934000	-0.100901
5.935000	-0.083522
5.936000	-0.062601
5.937000	-0.061314
5.938000	-0.032991
5.939000	-0.020117
5.940000	-0.018508
5.941000	0.007884
5.942000	0.026551
5.943000	0.022045
5.944000	0.037172
5.945000	0.018826
5.946000	0.016252
5.947000	0.016573
5.948000	-0.023336
5.949000	-0.048118
5.950000	-0.047153
5.951000	-0.073866
5.952000	-0.092212
5.953000	-0.082556
5.954000	-0.097039
5.955000	-0.106051
5.956000	-0.104442
5.957000	-0.091890
5.958000	-0.058096
5.959000	-0.057452
5.960000	-0.020117
5.961000	-0.001450
5.962000	-0.001450
5.963000	-0.002416
5.964000	-0.001772
5.965000	-0.003059
5.966000	-0.003381
5.967000	0.011424
5.968000	0.015286
5.969000	0.011424
5.970000	-0.001772
5.971000	-0.022692
5.972000	-0.010140
5.973000	0.029126
5.974000	0.060023
5.975000	0.068391
5.976000	0.086736
5.977000	0.112806
5.978000	0.112484
5.979000	0.149819
5.980000	0.204533
5.981000	0.205821
5.982000	0.279524
5.983000	0.387343
5.984000	0.390884
5.985000	0.575303
5.986000	0.736549
5.987000	0.533785
5.988000	0.270190
5.989000	-0.065176
5.990000	0.400217
5.991000	0.388309
5.992000	0.549555
5.993000	0.621006
5.994000	0.593970
5.995000	0.396999
5.996000	0.104760
5.997000	0.097036
5.998000	-0.111844
5.999000	-0.217411
6.000000	-0.217411
6.001000	-0.292080
6.002000	-0.317184
6.003000	-0.315575
6.004000	-0.319437
6.005000	-0.294976
6.006000	-0.287252
6.007000	-0.265366
6.008000	-0.219342
6.009000	-0.190054
6.010000	-0.182329
6.011000	-0.126649
6.012000	-0.032669
6.013000	-0.030095
6.014000	0.023332
6.015000	-0.008853
6.016000	-0.010462
6.017000	-0.039750
6.018000	-0.059061
6.019000	-0.058739
6.020000	-0.075154
6.021000	-0.056486
6.022000	-0.054233
6.023000	-0.041681
6.024000	-0.047796
6.025000	-0.021405
6.026000	0.003699
6.027000	-0.003059
6.028000	0.015286
6.029000	0.032666
6.030000	0.031057
6.031000	0.047471
6.032000	0.064207
6.033000	0.056161
6.034000	0.062920
6.035000	0.071931
6.036000	0.065816
6.037000	0.057770
6.038000	0.048758
6.039000	0.070644
6.040000	0.077403
6.041000	0.096714
6.042000	0.089311
6.043000	0.095748
6.044000	0.117956
6.045000	0.143704
6.046000	0.143704
6.047000	0.159796
6.048000	0.195843
6.049000	0.193590
6.050000	0.223522
6.051000	0.260857
6.052000	0.269225
6.053000	0.332629
6.054000	0.541509
6.055000	0.639673
6.056000	-0.128580
6.057000	-0.062923
6.058000	-0.030738
6.059000	0.061632
6.060000	0.114415
6.061000	0.129221
6.062000	0.125037
6.063000	0.131473
6.064000	0.110553
6.065000	0.108622
6.066000	0.118600
6.067000	0.144991
6.068000	0.148853
6.069000	0.164302
6.070000	0.148853
6.071000	0.168808
6.072000	0.179429
6.073000	0.191659
6.074000	0.189084
6.075000	0.200671
6.076000	0.230281
6.077000	0.230281
6.078000	0.274696
6.079000	0.304306
6.080000	0.314927
6.081000	0.315571
6.082000	0.293363
6.083000	0.278237
6.084000	0.285639
6.085000	0.255385
6.086000	0.242511
6.087000	0.250879
6.088000	0.221591
6.089000	0.204855
6.090000	0.198740
6.091000	0.169452
6.092000	0.191337
6.093000	0.190372
6.094000	0.198096
6.095000	0.210326
6.096000	0.197774
6.097000	0.207430
6.098000	0.223200
6.099000	0.226097
6.100000	0.256673
6.101000	0.277593
6.102000	0.306559
6.103000	0.325548
6.104000	0.373182
6.105000	0.363527
6.106000	0.373504
6.107000	0.404080
6.108000	0.367067
6.109000	0.359343
6.110000	0.291754
6.111000	0.204211
6.112000	0.197453
6.113000	0.142094
6.114000	-0.155616
6.115000	-0.213549
6.116000	-0.126971
6.117000	-0.033635
6.118000	-0.032669
6.119000	0.136945
6.120000	0.381872
6.121000	0.402470
6.122000	0.451391
6.123000	0.385090
6.124000	0.264719
6.125000	0.245730
6.126000	0.177498
6.127000	0.148531
6.128000	0.149175
6.129000	0.132761
6.130000	0.082552
6.131000	0.073863
6.132000	0.002734
6.133000	0.071610
6.134000	0.086415
6.135000	0.453644
6.136000	0.642248
6.137000	0.649972
6.138000	0.706939
6.139000	0.445276
6.140000	1.404064
6.141000	0.333273
6.142000	1.340338
6.143000	-0.001772
6.144000	-0.686988
6.145000	-0.471671
6.146000	-0.176536
6.147000	-0.167846
6.148000	-0.031060
6.149000	0.030735
6.150000	0.030091
6.151000	0.070966
6.152000	0.106047
6.153000	0.106047
6.154000	0.097357
6.155000	0.062598
6.156000	0.056805
6.157000	0.028160
6.158000	0.055839
6.159000	0.047149
6.160000	0.065816
6.161000	0.072575
6.162000	0.069035
6.163000	0.055839
6.164000	0.011424
6.165000	-0.071291
6.166000	-0.091246
6.167000	-0.156903
6.168000	-0.179111
6.169000	-0.177501
6.170000	-0.191985
6.171000	-0.194559
6.172000	-0.192950
6.173000	-0.243802
6.174000	-0.273412
6.175000	-0.273734
6.176000	-0.300126
6.177000	-0.320081
6.178000	-0.320402
6.179000	-0.323299
6.180000	-0.340035
6.181000	-0.346472
6.182000	-0.329092
6.183000	-0.292080
6.184000	-0.268585
